Time,pelvis_tilt_moment,pelvis_list_moment,pelvis_rotation_moment,pelvis_tx_force,pelvis_ty_force,pelvis_tz_force,hip_flexion_r_moment,hip_adduction_r_moment,hip_rotation_r_moment,hip_flexion_l_moment,hip_adduction_l_moment,hip_rotation_l_moment,lumbar_extension_moment,lumbar_bending_moment,lumbar_rotation_moment,knee_angle_r_moment,knee_angle_l_moment,ankle_angle_r_moment,ankle_angle_l_moment,subtalar_angle_r_moment,subtalar_angle_l_moment,mtp_angle_r_moment,mtp_angle_l_moment
11.0,47.99931366,-14.40190809,0.91641594,-40.43984954,-19.51103338,2.69174797,-7.81215023,-10.32858342,2.19299989,-15.24402012,7.32173881,-0.2806169,19.22328336,-25.50584718,-0.71319883,16.16542158,-1.76065815,-16.66282942,-40.52085401,-0.21711528,8.67818265,0.02517223,0.01937609
11.05,-0.16074894999999856,-34.18824368000001,12.963318010000002,34.84069472000001,-4.03562207,-15.657302039999996,-14.511138720000002,-9.04098478,2.75557682,-14.490859090000002,7.09988303,0.25633080000000014,4.18019035,8.036167920000002,10.794625140000004,12.83846939,-1.9832916400000002,-20.4929904,-40.829362610000004,0.40983828000000005,8.783559300000002,0.02302987,0.01915191
11.100000000000001,63.25637544000493,-4.140735079996716,-11.355559220000824,-93.16505230000851,-20.607790999998443,25.739296070006155,-11.949164849999852,-8.645099599999993,2.2150094499999664,-9.168955160000014,4.502654819999962,-0.4383427300000171,26.883876130003312,-44.34840076000398,-8.52513243000076,11.661654439999992,-0.018250079999941007,-21.274228869999984,-41.249134940000005,1.1099644600000165,9.03547706000001,0.02435822000000014,0.021888139999999938
11.150000000000002,2.6708816499961143,-20.478433500002232,-7.942586070003567,-5.775771189998301,-37.56926510000636,-18.722136330005036,-11.365574820000148,-7.9427519799999375,2.108779340000007,-5.377919149999318,3.496081419999607,-0.6522201100001596,2.5755003399970375,4.7616183400031735,-4.762650090003004,11.728428340000011,1.3444973800001259,-20.864033299999985,-41.188785019999976,1.3028328599999974,9.194781959999995,0.024557570000000806,0.023134900000000427
11.200000000000003,15.403598750000612,-21.84530864000283,-8.230615270002978,-14.734986299999688,-25.706014959998022,-11.25882867000539,-12.827604530000462,-8.310633249999926,2.218285720000016,-5.455373629999711,3.339160860000045,-0.4193231300001223,4.937258409998059,-6.610630610000455,-4.875651260002583,12.70090347000002,1.3945878200000001,-21.9585285600001,-40.946598869999946,1.406973740000016,9.431161200000023,0.023131650000000465,0.021344350000000116
11.250000000000004,28.128610599997366,-2.4150868400086036,-9.081088490001102,-43.378004009998776,-15.32840963999979,32.03640403998848,-13.11069713000004,-7.556784509999894,2.3621228299999797,-6.829260420000183,4.0275504399999065,-0.05832314000003744,24.48687865999281,-20.84090003999858,-5.8331505500015055,13.924490630000125,0.017374459999936864,-23.268893170000066,-39.53775175999988,1.5337624499999956,9.73029015000002,0.0213087600000001,0.023369500000000015
11.300000000000004,11.834649010007738,-42.4226457499941,-4.170105320008689,-33.20085132002616,-13.552150019993716,-20.33382586998742,-11.338771289999148,-6.985811209999418,2.355068430000023,-10.264192200001292,5.0102854199996685,0.1802526100000874,-8.757492179993475,-12.801463980007515,-5.239764950008813,15.855812900000153,-0.8508826300001795,-23.683149899999975,-38.30057141999993,1.3849672099999855,10.240468750000064,0.021578950000000097,0.02468298000000053
11.350000000000005,-0.222057300029757,-5.063558129959185,-6.01500372000106,3.5414242100318774,-21.955869230009483,12.438930820053645,-13.389669229998876,-7.240880109998967,2.2758425100000417,-2.817807729999697,5.503737569999501,-0.5870317999999959,16.375563580031653,4.1372138500246605,-0.861181060000605,15.059899219999956,0.5840818299999653,-22.61384792999982,-37.011354109999765,1.3860486800000003,10.902984780000017,0.02275330000000052,0.021257930000000657
11.400000000000006,20.507326820000117,-37.82732597999276,-1.279722970001391,-19.600909390008788,8.530481899993175,-8.692717019989692,-14.960629399999707,-6.112642049999426,2.1163357599999912,-6.7333489100009185,6.841666369999912,0.05263536000011956,-2.82253114999379,-15.143987730001003,1.7368909799984786,14.61679775000005,0.08482864999997208,-20.862716989999797,-33.41824752999939,1.2820383299999596,9.921651649999779,0.0214307700000003,0.02388570000000061
11.450000000000006,16.102336560005302,-23.986963069990004,-2.430732269995593,4.792102269990212,-15.056822970002578,-3.8493483699880278,-16.633212519999347,-7.7808439699997685,2.620507029999784,-3.688615280001578,5.076187760000061,-0.4322906800000568,5.38434466000969,-9.625979590005041,1.2985646900034036,15.22436969000024,3.254755610000414,-18.92144392999967,-26.11118908999887,0.8708166599999376,7.510665949999666,0.022745870000000983,0.022107590000000902
11.500000000000007,12.66543150998637,-15.347249049998975,-2.340713919994636,-4.528522919984818,-42.507741100004175,14.117693739994628,-15.165906499998018,-7.737426659999496,2.6034907799998415,-5.505419560002102,1.4722491699995937,-0.43547030999988956,12.132689790000656,-7.31373754998994,0.8353107600033824,16.28428319000018,8.845395290000518,-16.64226663999966,-19.6624877399994,0.5399651399999532,5.43925501999977,0.02274646000000134,0.022035220000001417
11.550000000000008,24.841767039930524,-66.02401675000256,-12.28814571996611,-32.92975738986837,-28.424016000027542,-62.47605233001981,-13.989340169999675,-7.05459063000065,2.361376709999818,-7.706845569998752,-0.8292273699993986,-0.08657140000017001,-29.33858536000547,-16.206273369941915,-11.632890239966887,15.723745299999779,11.44814821000022,-14.866836389999737,-18.15606651999995,0.40447552999998876,4.553494289999943,0.022845660000002262,0.023338320000001418
11.600000000000009,151.50862424000542,28.97047330002852,-63.3250628200045,-248.19649977000194,-10.507952600053702,58.894156589997394,-9.646111779997863,-6.511804710001338,1.7928375200001958,-6.006309879994813,-1.1696248800007083,0.28594425999967266,45.89733140001109,-117.52291851000192,-59.72828963000161,14.859213819999876,11.91769185000068,-13.26460713999964,-18.377134060000152,0.4579187199999926,4.317600329999939,0.019454410000002587,0.022558629999998473
11.65000000000001,-37.978102070051115,-55.30909186004242,12.770134330007131,84.043275190072,-58.20902494001255,-70.674143250063,-12.116916330000006,-6.472154169998854,2.03800573000002,-5.223896770002473,-1.8595527599995747,-0.16773500000008462,-26.950075560035053,38.217933490042505,14.900870740005521,14.844678070000237,13.351417769999856,-11.240039359999608,-19.158182990000054,0.311982049999955,4.119152449999996,0.027159790000002175,0.021913090000000135
11.70000000000001,20.76308635998553,-24.025292230009644,-1.8059114000022738,-30.921754419982683,-12.684347379990395,11.38528796999351,-9.33572089000004,-4.4962439699989,1.4530864299999524,-10.253939890001321,-1.8261644699997959,0.7338892100000353,6.859345099993709,-14.544020339988712,-2.4761534400034098,16.252970059999946,13.78015001999988,-9.495024539999658,-18.746662829999792,0.3199906600000476,4.169136740000006,0.02030249999999938,0.021521530000000753
11.75000000000001,7.394833199985892,-57.858093549961076,-3.3801968300062715,1.254382350009017,-88.88019236004972,-80.65083082999314,-8.069446629997433,-4.282343770000316,0.977025640000069,-5.984892249994261,-1.0931428600011788,-0.2139739700005093,-34.635643179980796,0.9427681900136808,-2.6434540300018314,15.745616700000213,15.60070951000088,-7.881502009999666,-17.459463779999677,0.4658484199999952,4.0112655699999245,0.026944720000002264,0.02420830000000075
11.800000000000011,6.332931849994498,-15.533950950010391,1.260932770002438,1.36648620998983,-21.184092430011194,49.511295609965885,-9.978679149998584,-4.141325299998714,1.2150331599997053,-10.235904650001451,-1.5836234000003073,0.6133457499999605,15.913432409988296,0.18600149000086197,1.7314264500009109,16.334152040000216,15.848056719999523,-6.7943640899998385,-15.725069089999549,0.4389177799999751,3.6198652299998875,0.02277096999999892,0.022828919999999742
11.850000000000012,37.39210519003629,-21.370494099976796,1.7560461800003295,-45.004689950035385,-35.311319769965486,41.00730640006269,-10.139929580000894,-3.2666664000008936,1.1889128700002574,-15.666820660000937,1.8741566600018618,0.3484693600000918,13.95150327002678,-25.8021414300273,-1.8208122400010032,16.086291419999874,12.193025619999219,-6.171882829999893,-13.512052139999476,0.25057948999994445,3.23846366999996,0.02342884999999958,0.021878589999999205
11.900000000000013,5.952857330008339,-25.257199369993813,1.4985584700013672,10.35998935999835,6.410448800016959,6.137114370001145,-8.691619109998252,-1.906259880000868,0.8725650999997216,-7.969902009998655,4.851288800000644,-1.2206696200004272,2.175825920003502,0.110127669994867,0.4563798900003171,14.712452449999162,12.535896289999876,-5.692034329999858,-11.039129119999295,-0.0006064600000365425,2.907670699999833,0.02302269000000016,0.022798019999998854
11.950000000000014,41.3835863299621,-14.046283120001089,1.619043009999484,-70.10037985994268,62.289351210019035,16.075655709990897,-7.762709029998883,-1.1994816000022428,0.904425509999826,-8.756491920000446,2.974221079996209,-0.7688506599998179,14.437751839997667,-32.90702109996844,-2.9087785299970617,9.601655939998993,8.026613879999072,-5.144367849999913,-8.452399959999607,-0.037764930000044765,2.0247684899997345,0.022638749999999364,0.02210994999999622
12.000000000000014,33.21282573002607,-42.27244081998308,5.253069280002114,-70.36052493004004,24.38834189998427,-44.66146212998001,-14.476008850000957,-4.245144840000836,3.602496500001001,-9.116941210001258,-2.83670482999975,1.299860110000517,-7.249631879983362,-32.58293037002106,-0.1309264700000804,10.05972937000168,9.479331680001255,-5.429018460000178,-8.50556819000043,-0.30367129000008103,1.403697229999962,0.02086484999999981,0.02368698000000105
12.050000000000015,0.12478510000933873,-6.582012080017341,-1.0854133300012248,-6.279461890006607,-25.330837760007917,-1.9665573200162711,-15.080411790002671,-8.352999330000124,5.8599710000006615,-16.634342870001984,-3.685534099998802,1.7180908299998594,28.479357859990554,5.474907769993983,-0.44248121000314744,19.51630855000282,17.32751859000348,-6.257076470000357,-10.778951750000795,-0.49688455000003656,1.7171211400001916,0.02062994000000019,0.02237820999999869
12.100000000000016,9.671319810029102,-35.71790160003041,1.5735297899943372,-7.4202383000609595,-54.1801757499871,-17.449535760029626,-29.456016700003808,-5.818986769997407,7.307052830000784,-21.365989699999375,-0.7142696999994389,1.0139423000000336,23.77527350998016,-5.702950010027273,1.5005379399875427,30.072988360003365,28.237497110002153,-7.7697496000007655,-13.168069090000566,-0.5996153599999392,2.331406870000159,0.02200976999999661,0.021609809999999244
12.150000000000016,8.029895010006015,-12.23774726000104,4.050518080000709,-3.103309040009723,-45.02967489001422,-16.61783223000954,-27.286008189997695,-3.9931424500000534,6.845309099999552,-21.65464857000127,0.7028232500006204,-0.5922837400004979,43.000127229997325,-4.787284050003085,3.1614971199991433,40.33181409000289,32.484576810001386,-11.621578150001529,-14.98049379000075,-0.011020749999744953,2.9453304000002785,0.02268257000000104,0.022299429999999728
12.200000000000017,16.37451115998743,-27.54062435000919,2.3222785100006194,-9.867842999956988,-32.956512989990486,-23.453907520001493,-28.496800810002128,-2.2751896400001987,5.575565519999324,-25.00982316000141,2.9342640700012947,-3.027305790001434,37.798659409997,-9.761457709988619,-1.367166489995367,47.18329490000159,38.85370892000294,-15.363244990000819,-17.421006430000865,0.6338289800001842,4.020012430000411,0.022949910000000392,0.022048919999999625
12.250000000000018,6.934851689984066,-35.80627746999543,0.45324689000327323,-6.8519037699767145,-37.33429823000303,-14.819310789983168,-31.72801863999907,-1.053139219999472,3.4274865899991815,-28.15464997000104,3.2777496999998283,-6.9467677800011565,39.13780472000405,1.0409931200131095,-0.08314341999260291,51.56488539000151,48.56321411000364,-17.084497790000622,-20.748032920001748,1.2353533600002584,5.210093680000497,0.022102139999999954,0.022147880000000078
12.300000000000018,13.726611000002109,-31.239603460011512,2.245626109995559,-9.807492379991473,-41.66686563000159,-10.172442480020123,-28.42265353999912,-0.8188105900028899,1.5512333699988206,-30.224721290000964,2.6524311899985475,-8.565762810000846,43.44055676999081,-1.1747370799982053,-1.0267551000032185,55.56082046000176,58.19366741000324,-19.318744740000927,-27.050761270002383,2.0062568200003046,6.883633610000679,0.02267541000000174,0.02067758000000038
12.35000000000002,18.53482044000701,-42.326480040014125,1.9727837599914602,-12.013542999982112,-39.61663845000721,-33.64951619002395,-28.080868510000197,-3.061474380005164,-1.4389466700015718,-30.050366610003117,0.5415110999979759,-11.349340850001086,36.49529006999239,-4.547675649998727,-3.0496963900084135,61.03844927000232,65.55015608000383,-22.247749600001097,-33.40198701000245,2.8463508200002963,8.748756510000693,0.022725610000003817,0.021970690000000966
12.40000000000002,12.09281849999668,-39.61944648999494,1.8745224700004752,0.720339879998317,-44.66959367000657,-5.057348629979528,-29.517811200000324,-3.286629289999605,-3.7903188000007177,-33.416045300001194,0.6633144100001142,-13.963197010000627,46.72470682000652,2.6674740500023892,-0.45818026999804373,67.11898212000169,73.76970397000218,-25.465059080001467,-40.43234698000302,3.471841750000234,10.615779080000776,0.021954549999999587,0.020862839999998332
12.45000000000002,13.100539000017223,-37.53782755001545,6.818701750007263,-3.9800418500419594,-34.36221229000766,-7.927887990030449,-29.20845702999883,-4.14489084000103,-5.710238430000648,-35.78384125999976,-1.6069411500027089,-15.773367550000515,53.24717399998584,0.9786040299822809,2.1660016699952296,71.96773474000257,75.93889397000017,-30.25478071000235,-47.81120331000263,4.447632620000583,12.526815040000697,0.02142613999999847,0.020674669999999572
12.500000000000021,22.428350810019,-33.01066490998082,5.364357169987809,-21.955256530014356,-44.86116878001776,-7.519142019980081,-30.050389640004454,-5.21969637999922,-8.255439340001008,-38.79525689000312,-4.134611759998231,-17.442235670001153,63.35538997002442,-4.720709270006653,-5.973850900019201,77.35251343000205,78.26146296000212,-34.800166750001246,-52.23964715000138,5.8082316600004225,13.778474250000428,0.022827670000004067,0.02101346000000151
12.550000000000022,17.625729329840553,-51.63841026998699,7.578721579981681,-11.578553539666451,-51.2500365200174,-9.755634739970487,-33.17718721000361,-8.834591740003734,-9.471383150000063,-42.62944761000455,-7.813578989997494,-20.802221100001812,57.51788483001283,-0.542015829864491,-1.7124614399168046,80.95152369000148,82.36898999000205,-36.6355044200004,-55.74147998000158,6.420312110000131,15.03276360000059,0.021050430000004335,0.020347550000001297
12.600000000000023,6.085258559883158,-43.38306297996887,5.107651789991538,24.071243150252258,-82.65727672006635,-5.8690127799982434,-39.24332468000331,-9.270395670001006,-9.179919449999842,-47.09740120000202,-7.05976348999834,-23.883213970000746,72.89031202001595,13.00628136009776,5.96483080006578,84.37954445000142,84.5121320300012,-38.14687759000097,-58.9149773400008,6.776114830000219,16.384891430000447,0.021537640000002047,0.02025153999999884
12.650000000000023,22.322797600027073,-36.30926671999965,10.672861860013388,-12.519074350040864,-55.36436672999993,7.253059309997225,-40.60912546999995,-7.821094419999944,-8.880863569999978,-44.187962119998744,-6.473070209998037,-25.92244283000048,83.3674930400002,-3.01486902002736,-1.3658951500020202,86.31731823000051,84.37978249999928,-40.066277510000525,-58.825325209999065,7.1864184000000915,16.99425423999999,0.02143268000000063,0.020056610000000488
12.700000000000024,11.328029769995766,-36.03989443000346,5.335349619988408,10.790298920024227,-38.87588084004121,0.21902763998086505,-39.54803884999699,-7.372246929998475,-8.164811489999549,-40.989183020000446,-4.653244769995824,-26.265520089999445,78.5043273299851,7.107661880011169,0.5406030199948263,86.33253377999908,81.05911151999769,-40.45173428999998,-55.1784465799975,7.095727259999865,16.336446589999326,0.021768509999997496,0.02007588999999902
12.750000000000025,16.87613320002692,-35.666326479992506,7.724553590001721,-4.842220850037686,-32.58793512000343,1.1212815000004461,-38.98924598999829,-4.541323869995607,-6.631431749999056,-39.2977897600008,-1.5213556099933399,-24.484621799998564,74.62846229000345,0.9002219199813093,-1.1964081500100952,83.32920485999767,75.68937862999744,-39.840803709999435,-49.46256356999717,6.654077729999711,14.602201119999043,0.0204792799999978,0.020295209999999144
12.800000000000026,8.89799422999684,-33.6199325300025,3.4995747199950835,2.646411309988026,-22.350053590012546,-4.47964135001678,-38.4998834399979,-3.2712292800001346,-4.36666719999909,-35.76349638999712,1.7162255699998779,-20.92348867999789,70.7701209199894,4.996056800001383,-0.165511070002055,79.53872082999857,70.94057324999764,-38.0689200199989,-44.918842999998276,5.865455899999507,12.883970999999233,0.022046919999999245,0.02043537000000084
12.850000000000026,8.842397599998865,-35.93525266001432,-2.5892147300078903,8.765832079990822,-3.8986063100057877,-25.796958420031324,-32.4979718599954,-2.9829287600016925,-1.1701519999979917,-29.095920049996156,4.385604429997745,-15.850793339997029,53.45775258997646,5.587208720003185,-3.49330833000675,75.39606753999774,65.62210928999689,-34.88543860999766,-41.107892589997356,4.551775299999158,11.154213539998885,0.0206496999999983,0.02167642000000121
12.900000000000027,9.156195459983724,-22.17502067998524,1.3638339699895443,7.478491780030928,12.817519089991766,-10.283484539981206,-25.23262136999537,-3.779406630000903,2.5377306900013585,-21.133539519997072,4.477994379999473,-10.257093679997723,49.32257142000276,1.859371580018914,0.021398429997906542,69.32024334999528,58.17134626999474,-29.124619129996308,-34.494590249995625,2.7871192499990642,8.632648659998543,0.022371900000003206,0.02152519000000314
12.950000000000028,12.69837215001314,-22.744129490001658,2.3162172700014665,-1.1105153400329577,40.77040068002948,-4.835671419989749,-16.6731734099969,-5.64066235000085,4.767447980000969,-14.720714819999518,2.7901496299984134,-5.232386339996037,32.03711224999511,-2.5712860700140294,-0.070199680002553,56.74088349999081,43.411281719989056,-21.93441984999599,-25.6989660299949,1.4168966599994484,6.04681551999858,0.022251169999998873,0.021513079999998862
13.000000000000028,4.637362460009076,-22.47403119999472,0.2942793699976253,10.90524822997507,83.32693835001781,-8.806984109979698,-12.428107039999887,-8.449554530001153,6.625967690000742,-11.080469640000093,-0.9074324900018266,-0.34183533999712734,20.72530526000351,1.2051601799918685,0.2254732499962643,37.21955898998743,21.996045269988993,-15.660240839996954,-17.776655159996416,0.5667181999995816,3.7278986099988396,0.022584500000000483,0.021743859999999456
13.05000000000003,3.220370920016667,-14.390906120004136,-1.7679638400034094,0.5917414799638689,94.84769610998697,-6.150467440019275,-11.52269172999953,-8.666958599999068,6.568092859999744,-7.094542709997572,-3.18192391999932,1.5267130299998284,18.034364179989968,-0.38795644001355845,-0.965094510006028,17.966199489991094,7.1241951999945465,-10.9490297799977,-13.000288839997888,0.09324359999987451,2.369688009999621,0.02231798999999987,0.02182550999999915
13.10000000000003,23.692254279941952,-19.33538479996566,-1.2492115200073057,-29.38532652993037,68.52809975000064,-16.91129967995389,-9.935165540001536,-9.294170799996643,5.174427690000204,-7.0615884799965585,-3.2740477399997787,1.3893211799997647,7.268211140023818,-17.037187039951966,-3.833566079998076,7.937605409996205,-0.20740484000251164,-7.4095767399982355,-10.392144609999441,-0.008667740000032781,1.9318639399998658,0.023128169999996246,0.020627719999999735
13.15000000000003,0.8414015299653768,1.921405339999259,-4.014291390000286,-10.750405489936412,15.87743431996118,22.029057210006023,-12.523332440003244,-6.702737079996651,3.5830401999987993,-7.447521380000394,-2.5220030799951627,0.31674016999850396,22.65133724999917,-0.5710428799708147,-1.7587746599950949,6.432636290001198,-3.6321138800015036,-5.483202629999706,-11.980685210002747,0.05929557000006535,2.30025692000085,0.021398810000000185,0.02167414000000023
13.200000000000031,15.868771850064693,-35.86675522999862,-1.8991864100037115,-7.959099660090688,-95.2584381700732,-19.25743301999342,-12.600318579996124,-4.721668420001239,2.013567129999059,-13.999546130005434,6.621478100002614,-0.7998371600001143,-9.967638459998625,-9.636937960050854,-2.940880840007804,13.247808790006166,-5.177888649999399,-6.648311060001691,-19.238070770005695,-0.06133708000018288,4.392339800001435,0.02195126000000056,0.021357299999996218
13.250000000000032,51.10500312035532,-34.35195685007984,-5.5310134700540505,-66.75810630056695,-116.21695129986408,-4.529739299997108,-10.004747679999777,-7.458088890008338,1.863289249998536,-17.772318010004447,4.939033019993533,-0.4339630300007077,-4.048182210026528,-37.76046232030187,-7.87716391005467,19.549559530002046,-1.4993678699969881,-8.830189430000575,-27.06919341000379,-0.311429360000097,5.9833871100004465,0.022880209999999346,0.02195159999999733
13.300000000000033,15.088854450149329,-10.881252390088118,10.490795729925903,-22.292536660156234,-39.65646370009714,81.13456597963378,-12.993807519997418,-11.312529370002235,3.2585055099984723,-20.089184959983605,1.9116328400053644,0.15728679999808534,29.839350339891098,-8.148076490107794,8.948328299931473,17.977259499998336,-0.34116940999881645,-8.833632299999719,-29.583420329999356,-0.33712148999996616,6.0355698199996635,0.023243739999996488,0.02195003999999835
13.350000000000033,72.5291291601436,-16.4956777500934,-1.8835553401661391,-102.99659515016037,-25.90112306021095,9.718266519513328,-9.188919289980275,-9.369126169997216,2.334845909995984,-11.647428279989699,1.5175818200098923,0.2830636999977635,12.944534239857857,-56.21571735008417,1.3073710098330587,15.57810182000001,1.0074906500026133,-8.236416199999532,-26.954802709997956,-0.15614540999989152,5.43872054999959,0.02327426999999811,0.0230875299999968
13.400000000000034,15.75579213978202,-19.367178090015173,-2.162889789972888,-27.87747037967373,-18.152687980106734,0.5040968498711536,-4.52479147999396,-6.01793456000024,1.1576051699988534,-9.846887169992105,0.9871344899993224,0.08024683999826737,3.0915820999544836,-7.760148389809661,-2.4211445099807785,14.39407837000016,5.496507000003977,-7.770215909999685,-23.680137639996957,-0.006633880000026947,5.027796149999479,0.022032540000005544,0.02184114000000837
13.450000000000035,-74.26144493021641,-27.048523740024905,16.367351450045597,127.53596955034934,-55.875032050064085,-21.47239600009968,-4.002074250000792,-7.953226310000542,1.0233737799998246,-7.212642909992461,-1.3401077500022713,-0.22242675000120127,-12.440414650042154,71.78961114018448,11.443237200037352,14.067850899999257,9.77724111000342,-7.587382719999886,-19.330804099997252,0.05453858000011744,4.1119663099993895,0.02426269000000588,0.02341569000000676
13.500000000000036,-3.7302758799712157,-40.01986619005474,1.2672753599577418,36.98210525979415,-11.835234310011419,-21.71168853004142,-11.511823329992222,-5.458932669994884,1.2619978899997106,-9.731544830010455,-0.43771737000787847,0.6535480700009496,-9.591905770040377,11.697152789948888,-0.3118811900448548,12.575889880001219,12.529774559999893,-7.918317990000327,-16.72940134999853,0.24509735999999882,3.732891870000013,0.019769330000000324,0.01810920000000154
13.550000000000036,26.469869230104678,-29.953812910013934,-1.4464066400442779,-44.86989597026753,-51.47742403999639,-2.494443440013999,-3.0660509399964324,-7.415625689997212,0.985946530000823,-9.422235649996558,-3.595787170003626,0.6372881300002151,-8.352124820011396,-19.898251360102268,-3.0966511700315067,14.146998160000397,12.799184569999483,-8.105693759999907,-14.818424339998765,0.23757919000006333,3.847635100000122,0.02332116000000215,0.023540660000008824
13.600000000000037,11.396527160201995,-18.71289530007779,3.671757999969617,-11.26207681031653,-32.410926569983125,7.857807999905296,-2.5494885199980946,-6.625955109998641,0.8748420599989257,-6.709071020006149,-0.855425689997539,0.0686230600002774,-1.4113791300478447,-4.454879070178501,1.4759799399785885,14.243904950001161,13.358335969999992,-7.923017389999994,-13.406103359998959,0.3315841100000596,3.815560549999902,0.02249934999999706,0.02354673000000604
13.650000000000038,12.655722490030858,-32.9813516801741,2.0694868100045154,-10.778024140041433,-17.230952879928303,-11.497920980198167,-3.1210468800044833,-7.327483840000712,1.1815917700004928,-6.192243560005371,0.5909686900020368,-0.23256171999972927,-11.811665740130332,-4.846674170035762,-0.5037597399996342,14.734499869999887,14.022573089999343,-7.918018609999935,-12.577068069999626,0.32723789999997893,3.7893168300000553,0.021912579999996625,0.022228990000000004
13.700000000000038,26.150596379896296,-17.096041710163096,-4.802201679966143,-16.690480709875164,-31.252281449875067,15.79097572984795,-4.161175090011894,-8.528792669995994,1.3130459500008542,-6.0874999300045864,2.3534033899992277,-0.575880909999969,2.6436926898832835,-11.266587789930345,-6.4879224399759705,14.366901039998856,14.429201870000366,-7.479233689999514,-11.939893369999488,0.2610328200000204,3.832050280000071,0.023195759999995846,0.022775709999994297
13.750000000000039,-13.347396489980053,-62.59002485999339,10.66889458999655,23.063555549985907,-32.98212212002506,-55.713416800008545,-6.033170469998012,-6.483879740000203,1.2482380799999038,-4.988755789997985,2.3230389400014526,-1.1090945100002036,-37.86475918999969,14.874845919986155,7.126972059996689,14.9250502600006,15.40069787000052,-6.314120439998878,-11.3168401299998,0.2777146900000442,3.77234951999988,0.022970180000001332,0.022682950000001215
13.80000000000004,4.651079859998537,-30.882730800006698,3.686556760011169,-0.7475438799641869,-48.34048082996186,8.925436870017988,-5.551456350001432,-6.41715263000101,1.2111234700001043,-7.742310279999712,3.4130011800022784,-0.8860223300009589,-8.700040280000735,3.6592808400013306,1.3874439100075395,15.707469860000261,14.08556938999845,-5.173467089999365,-11.843336560001006,0.3645653200000451,3.645013649999959,0.02233947999999907,0.021901550000000235
13.85000000000004,15.891762249971991,-40.90316244996103,4.037152389992052,-6.724013959929818,-36.73046509994728,4.095489160093239,-6.478157920003843,-6.0118315600013155,1.2349514000005295,-10.01035060999666,5.300863650000019,-0.9817897900000796,-12.813712909961525,-5.425206009970278,0.4297932199936736,15.5142753199994,11.638509679999345,-4.497009869999647,-13.291796140000795,0.3391905999999159,3.3169013899994604,0.02318104999999762,0.02147140999999665
13.900000000000041,-24.515031430069854,1.0423799200523778,-9.25785544003013,79.59096955016417,53.592401420104586,140.36304025021286,-14.306015910014596,-5.905369489999866,1.608337140001467,-4.680557629997317,5.379286240003657,-0.5735378199994525,34.59671672006687,34.49199051007611,-7.443922920026827,13.708280179997267,11.176097019998263,-4.404511580000211,-12.399051729997666,0.1730698999998545,2.668928279999605,0.021304839999997806,0.025296490000003464
13.950000000000042,4.193068719984988,-26.74952916997922,1.7514535599939083,-11.20619486998491,50.52029884001775,8.555015329978431,-11.430240919999838,-4.1675179400023055,2.1582595500010764,-3.3505207799933916,4.478963249996523,-1.7168246100006779,1.5626756300090219,-3.3424647799889784,1.6769347399987038,12.158295319997695,7.701634919999578,-4.291925659999432,-8.39877907999656,-0.12064817000022382,2.158261559999541,0.02265887000000058,0.02176942999999686
14.000000000000043,4.460606249963796,-6.990722570042211,-0.7200168599839922,-15.86597570997124,53.99554506997021,5.1182301999028965,-7.328887719995706,-7.287611859999063,3.290914340001309,-5.134232890010116,0.42708658999822613,-1.1290478299981335,15.21721322996364,-0.03865181997368694,-0.7817873999868936,11.78560081000498,8.381997700000047,-3.3905920699994896,-6.888949390000986,-0.24839470000002967,1.8048694699999546,0.02253621999999473,0.0206314200000055
14.050000000000043,15.628274140022803,-18.97255305000867,2.774196960001902,12.50916568991994,-20.282863100083752,-18.657011710000265,-5.772958030018333,-10.512547979997015,4.471289890001269,-16.885043369996225,0.9456529499996527,0.3107962999994053,10.892563410003577,0.3627491799704514,-2.0607929199946473,19.66047602000468,15.188335910011745,-3.84422822000128,-9.125200200001965,-0.29421369000002356,2.090086680000363,0.022214049999997064,0.02113137000000754
14.100000000000044,9.033462319951951,-7.276563560037628,3.183196769968739,-7.9859598300260375,-38.20063333995641,25.285706219968592,-21.502411120007636,-7.724727149988162,5.942115850002008,-14.645491049993439,-1.2937115500006315,0.20655869000051735,36.49448281997211,-1.2017573499672443,3.884645989982852,24.868989270006573,29.038832270008285,-5.2833018400017,-10.781361730000745,-0.19178768999971396,2.0969548099998097,0.023572239999993232,0.02312349999999987
14.150000000000045,3.5300426599984522,-27.576523349984672,6.590451340005905,6.4709734700367285,-28.201799780008376,-21.638859199970526,-18.388452090000772,-4.51382769999807,5.615759949998935,-20.212802280004375,-1.1228784799958724,0.7342965599966635,21.915879820018244,1.059513840002708,2.8078529200033344,35.60811166000884,32.8701923900049,-7.715283210002618,-12.097362480002635,0.033809530000117397,2.218569640000805,0.023891820000002808,0.021503099999999935
14.200000000000045,6.472254469998296,-23.796903059951333,4.864146350003326,1.3244068099816442,-48.86603997999458,-32.69152311993253,-24.828353960015573,-1.9028907500002494,5.400593579998839,-23.258259770003676,4.062635519997276,-4.18385208000571,34.53871214006466,0.9810331499964178,3.0744299500040584,43.81030002000486,40.527314330006526,-11.2472635100036,-17.084567820005226,0.3010367600004487,3.865416540001921,0.02295233000000555,0.023585850000011004
14.250000000000046,16.480254160008077,-40.427272180018534,0.5965031700035652,-4.806224250023973,-42.388538099985254,-18.393656360023275,-30.507632590002725,-1.7201196499995977,3.714636139997362,-28.50325083000328,5.033581029996652,-6.286985240001606,33.85987439999256,-3.9076553400100558,-2.2509631100026746,47.10939323000507,45.924829570005116,-15.309880660003616,-21.997150560003487,0.9783573800007,5.632412530001215,0.022928220000001363,0.021590280000000094
14.300000000000047,19.7042422000134,-36.31873685001992,4.311319589999338,-26.994191520044627,-50.842147380031435,-16.048917590041142,-31.271165840003597,-0.30820685000036663,0.6648140699986955,-31.4698468500031,3.3813722999976923,-8.721355100002505,42.71046347998887,-8.500936220011308,-2.6962148000062647,53.20767432000399,53.01236141000787,-19.321856060003753,-25.283192390002966,1.9061613800009802,6.794466400001032,0.022127299999997983,0.021755920000000803
14.350000000000048,25.53577371999831,-39.63248126005048,10.108800779989895,-45.94966550994555,-23.21948543999487,-8.059421440055687,-33.61344351000069,0.584438869997343,0.24837478999981194,-35.1430551400003,2.5552163200029785,-10.480684730000242,51.604005079958405,-14.25846898999514,-1.8022881800035129,56.302524010003886,57.949045120003255,-23.00450324000297,-28.956210600003768,2.894293370000788,7.893132950000999,0.020639599999997857,0.020187399999993395
14.400000000000048,9.349604199952157,-37.54715205000152,-0.016810490022759028,12.631475970072085,-46.0387462500261,-10.816606189983641,-35.67991478000116,-3.1822827100014024,-1.7083486900037304,-36.921524040001685,1.9812062699999518,-13.196342000003153,56.91598797000188,4.615192110045691,-0.6572690899963588,63.82136566000802,63.31590533000708,-25.165006640001547,-32.7024723100035,3.5834715000006736,9.054961760001211,0.02209295999999842,0.022092430000001793
14.450000000000049,24.55692401998258,-48.61604683995799,15.054357569998944,-31.358117209992827,-41.17064931997902,2.247974320108529,-35.25360333000214,-3.230181289993433,-5.6705315300037915,-38.58768639000149,0.10554678000280812,-16.93088263000454,54.97111259005116,-15.351302869985496,3.800199560004798,71.27056484000714,70.19562137000626,-27.065958350002628,-36.282881270004054,4.421827150000991,10.274286970001356,0.021238099999999593,0.018807099999996073
14.50000000000005,3.502016229955153,-34.70773922993937,0.38087412999946335,18.243426080154755,-45.04625186995695,12.877598770101194,-38.89254525000282,-5.612017560001796,-8.558196660000998,-44.31090419000843,-2.8718757399947457,-22.11246226000552,81.44100762007636,12.765416980049684,1.10311608003523,80.46441466001042,78.76016787001049,-31.066109410005446,-42.621114930009,5.580425630001265,12.440069030003055,0.022782580000002942,0.022494770000000573
14.55000000000005,19.80773976997377,-37.20404347998266,5.385585689970485,3.436724160134303,-73.83757210006277,11.524900680035998,-41.873799960002955,-6.856736640005944,-9.609360250001608,-47.673814570013874,-2.61163725999847,-27.563162280005308,86.7547060500292,2.2451384700509163,-1.1504091600016195,89.74690043000601,87.72435275000771,-36.801366720004665,-52.44276570000888,6.816778110001067,15.861225230003198,0.022616010000009203,0.021199510000005285
14.600000000000051,9.858773959967873,-50.17761796007668,4.7056808799907355,37.19385906007096,-91.90725867007447,-20.576877040145337,-43.23908830999689,-7.411438760001181,-10.050409090000228,-49.306899829997874,-1.5714568799988706,-29.586079180000603,72.7193302899114,12.765841320027858,5.9751149000111905,92.53336233999906,90.22691696999777,-40.11021365000196,-58.88927434000355,7.574132150000408,18.11070420000112,0.019312419999998373,0.016762639999998375
14.650000000000052,18.64740642998692,-39.62861317997652,8.038338499990704,-9.883590599981334,-44.806929999986814,2.3782596400360045,-41.46410875999631,-4.014664399997797,-9.685729979999742,-45.04022119999582,-1.615618089998164,-29.409170739998316,83.7061365200125,2.2005912600126365,-0.6468500200027396,90.02764960999696,85.17791273999289,-40.300571599998165,-58.977681649996825,7.455673779999415,18.077699609998934,0.021948970000001698,0.021003190000003003
14.700000000000053,22.52771724004624,-37.24483201999795,11.154047880027825,-22.852768270135734,-16.378429660010784,4.564130909995292,-36.647281709994516,-1.8217546599959134,-7.856525879997673,-41.24004404999322,0.6840002800014495,-25.88111030999434,76.85577407998437,-3.4777004400544946,-0.6989361300011698,85.80298074999425,77.06895465998986,-36.847660409995136,-53.658973469992546,6.493451759998701,16.20996459999717,0.020883729999998442,0.021207940000004297
14.750000000000053,22.024790180040892,-36.82132981005921,6.954259770019166,-9.547027280050953,-8.425911859987199,-10.136416180128762,-31.015543779991326,-3.0721604500057746,-4.470883759996505,-34.38867654998865,2.8240916100000777,-19.15740626999385,60.87365045992256,-4.743363310045439,-1.699954930000383,79.26312161999269,69.93853460999306,-31.911386389994533,-46.341498369992124,5.102600539998436,13.30620359999702,0.021696569999997604,0.02102011999999836
14.800000000000054,22.863447820013477,-30.490915900005813,4.7483390900067235,-17.641341029948663,26.493875480049144,-5.84520675000472,-25.52810801999192,-2.043334980003949,-0.7407359099958181,-25.590223999996347,5.046339730002633,-14.089335079993628,51.10313689998365,-7.312023120007225,-2.739664239997857,71.67898062999188,62.493599849991504,-26.87749765999499,-38.65023709999132,3.6808304999986494,10.549795709996916,0.021981480000000886,0.020977609999998585
14.850000000000055,7.564060469976897,-23.541475019971372,1.6145124799923198,4.373981290037825,30.469576030029724,-8.853488469991385,-18.852877969994367,-3.3750587600025472,2.4027631600025603,-19.279668649991162,3.2153141599945174,-8.179521639995595,39.46730568000728,3.441320480019148,-0.44374458999982624,62.225803409986,51.851498269987346,-22.118574459994157,-30.552276939991657,2.473916089998701,7.70710273999722,0.022942910000006256,0.02149701000000255
14.900000000000055,10.342501700019167,-24.811087819997237,1.4912041200104547,-4.7040910500428055,44.22161219004845,-5.679631200006377,-15.569531939997457,-4.988830710001273,4.645281290002171,-15.408450879994346,1.6259134599963743,-3.402577979995975,27.688784339992772,-1.0317454300260205,-0.9144324299983317,46.4095529599811,38.562453039983225,-16.83802445999477,-23.931857389993578,1.4065795599989968,5.6026732299980875,0.022578290000001312,0.021556210000001238
14.950000000000056,8.162943389995636,-16.892952009989518,2.2888421500012255,-2.892326670022141,49.10196014997036,-8.046180700017166,-12.309679349996522,-6.888673689999496,5.675968500000105,-11.779258609997516,-0.9018281200027642,-0.3858524799973739,22.702246369996526,-1.9812288800008648,0.3457702800011847,31.88107897998698,24.283809839985665,-13.342272649997224,-19.313676929996674,0.8068141699996495,4.192386939998817,0.022729749999999216,0.021916090000003188
15.000000000000057,5.767148450027062,-12.878012239939654,1.4189230600041451,10.95115196993103,40.92048367999987,-13.356924969876355,-9.34483092000204,-8.326020509998774,5.036103309997925,-11.16705725999752,-1.7111775900024635,1.143990149999865,18.398815660052545,1.9893544499745175,0.6598066300011811,19.531027369984333,15.357291009992638,-11.13183046999717,-18.334059260000203,0.5810494299997752,3.5971910599997305,0.02328667000000082,0.02147535000000547
15.050000000000058,34.471270429922725,-0.5453453299024806,6.289185060003881,-44.009699849897984,48.28509042001255,11.656117320166835,-9.151894930003593,-6.934966359996457,2.925269349996288,-10.657215689996836,-3.0145141100054946,1.494933669998462,28.315352800083183,-23.925067089939915,1.4559699400121078,6.071279389988756,10.871555819995386,-7.981141069996408,-17.721194459997545,0.39958946999997874,3.3381235799995097,0.02435875000000147,0.02214964000000664
15.100000000000058,-22.24278126030109,-7.363797769949593,-1.848723530040862,29.403889800448262,27.56424275993035,8.909356720008857,-8.799637209998687,-1.5766288799923847,1.2540998899983176,-10.980801099990224,-0.017919019994352192,0.17388787999414085,16.28644939000921,24.701302630267573,0.716867329999926,2.1384588100016524,6.303900749997827,-6.501858320000227,-16.301348870000933,0.5509104900002486,3.2617320700007575,0.02212178999999695,0.022224780000002036
15.150000000000059,16.695173149819954,-28.42963161001947,0.12315755000532047,-13.802862069743686,-76.43456339004732,-17.51361126000154,-10.635353720004966,-0.545587390005792,0.7948611700002248,-12.181149519996081,6.603595079994161,-0.8147480300016503,-4.648547770023207,-4.660784199849636,-0.4100073999825894,4.83063387000528,6.931045180004713,-7.6909166100019295,-19.779892500005754,0.6364697999998183,4.3240399800013245,0.02210191999999755,0.02202804999999956
15.20000000000006,22.725405919807944,-53.227382869921726,-2.068505129916308,-28.37362927975693,-124.67355911969567,-49.47728829942927,-12.361795560010778,-5.188293220013048,1.7666388500024564,-15.111005690010854,2.4207283899817544,0.05422195000185967,-24.119057119860543,-11.292099919855074,-3.04772799991441,10.24332788000562,9.290954660003298,-8.910205060000994,-22.803018139999715,0.44887507999985554,4.773243619999705,0.02291042000000123,0.022550530000002903
15.25000000000006,-19.241403429990807,27.57622407999102,6.589944910020005,30.302993909997436,-47.53310968991256,171.7899696900307,-14.837723969997734,-7.016797220003902,2.723579899999143,-16.8391311899945,-0.563896320003243,1.0841900399990434,62.29880811999898,26.38049600999228,7.176733450023049,12.174642930000548,11.753964360002831,-9.214021159999609,-19.580657139994035,0.3793133399998955,4.1518694799990925,0.024108370000000757,0.024139070000000006
15.300000000000061,6.408184090099174,-37.24019930023604,2.389340129908888,0.052166509817726414,-36.814657220327064,-24.621489910949453,-7.868118639984302,-6.763860339989839,1.3890124799964725,-12.979309289976444,0.7613197300081525,-0.0011953600042224378,-8.243513470303057,4.038440939916923,0.3540471099152742,11.706587209999409,11.977034760000464,-8.613431529999271,-15.434508249996675,0.3344361600000065,3.573359299999437,0.02223416999999532,0.02202014999999336
15.350000000000062,-5.642040329996929,-15.111201879984648,7.757641769987389,23.68792846995247,-6.763226370065817,30.61233322996426,-6.366286039996844,-6.514817239998184,1.5251420599992611,-10.38057715999564,1.0347464399983441,0.25359367999912835,11.374489030000642,12.613111369991922,5.4137095499917915,12.958276920003847,12.061760760000016,-8.528507530000324,-14.01904364999948,0.3940409599998014,3.3495683699998757,0.022514789999998973,0.02335429999999522
15.400000000000063,4.35957519008711,-28.696693169986368,7.789822619953046,2.753132769873365,-26.56890460981379,-14.865802159767448,-4.874002730006133,-6.8401150200062375,1.188477570000535,-10.986043070005941,0.5799536499977934,0.04614428999890266,-4.084304969945768,2.378815559931805,5.294168019954379,15.24625635999964,10.995927909998482,-8.676608659999975,-13.692791229999573,0.18024077999987598,3.513616470000559,0.021017360000004554,0.021364390000000434
15.450000000000063,15.42911969008673,-7.738850399968182,-17.554707079996486,-33.63099073006613,-18.97938284985174,56.262856870220936,-6.400127940009205,-7.409394400002636,1.5759519900014236,-11.068008700009107,0.5721880100040609,-0.9646773299978075,20.335829410065713,-4.135739680065879,-16.91722263999729,15.141259340000065,10.824540589999906,-8.685447620000387,-13.466814100000143,0.28196339000037796,3.7693273199999475,0.026448719999992803,0.022621189999995947
15.500000000000064,5.648107550019681,-12.721655020143206,2.8323579300528317,2.512352709995069,-19.85107131992843,26.39452868979773,-6.078147450013168,-6.704373149990842,1.2612318799987463,-9.291469190002879,1.966218210006653,-0.043778479998558356,10.644476629892662,2.225624569973234,1.5526297300526766,15.712111799998484,11.456586409999328,-8.842814840000022,-13.484244109999782,0.49305908000019094,3.54665095999997,0.0193140299999849,0.021667909999995624
15.550000000000065,11.017929620121478,-51.20829802010056,3.7304719900207104,-1.147376310275817,-9.234209919879547,-23.364020820005784,-9.190018160004996,-4.670076289990914,1.1215305499968562,-8.057334050026945,3.3816016400013,-0.5704303699976273,-19.3022144800385,-3.075326910129009,3.5664003800151383,14.712483690000827,11.550769069996635,-8.565244849999935,-12.912564629998819,0.5352432199999597,3.7651248500003227,0.022460309999983545,0.021249840000012458
15.600000000000065,17.772153140149626,-16.14119933989481,-0.4472311100136633,-22.802402850331216,-22.254759419958468,8.402927650199857,-4.523351419987341,-6.646123619999356,1.210550669999097,-8.112332520016318,1.7535824299953515,-0.4892547899978781,5.4867989401025135,-9.372972640145084,-1.5243002800162366,15.842858580003051,12.097455429997904,-8.378626669999628,-12.058417309998733,0.4694575899998601,3.7032131499998076,0.02215508999999706,0.02238904000000444
15.650000000000066,1.625276060046276,13.19838261979988,-0.43540347998890905,11.338327879895353,-32.40151341992298,47.73350153976131,-4.56765455000679,-8.57596171999371,1.5297280699993192,-5.869480200011404,1.5596195200013085,-0.6626830699994497,27.385684639854922,7.939193169946858,-0.6905800699942232,15.914419949999449,12.849435169999165,-7.978506779999338,-10.816113169997898,0.43004027999999733,3.5819928299998733,0.022419940000000527,0.021631970000004046
15.700000000000067,10.147752449989083,-36.30014258011947,4.140862700012997,-6.6094088800146,-20.6305559300058,-15.2253209801451,-6.636524140003798,-6.5120395199961445,1.3565510799996143,-9.425839380006536,1.7802097500001164,-0.5189875099991587,-8.322483080093019,-3.398098809998076,1.6409338300108367,15.545833319999769,12.98549616999974,-7.326862809998651,-9.371511619998532,0.43367825000006044,3.430931179999855,0.023160369999998896,0.022850400000000288
15.750000000000068,8.060493249943828,-48.965085830240334,4.867408410076154,-3.335637919812663,-30.10961243995053,-22.175772010228542,-8.877323770016721,-5.606729919990224,1.3092794599983235,-10.117830520020195,2.5091865200115135,-0.6657876100010047,-16.64156282016149,-1.7849250699643326,2.459045340054254,15.304302299998607,13.599750719998278,-5.8110074499974615,-8.45541183999861,0.5084929900001511,3.3863523599999508,0.023925870000011642,0.023287150000012698
15.800000000000068,11.698045650052396,-27.40744285994583,-1.6738590399738031,-2.985675100085776,-54.15738906973304,-19.87646180968617,-5.6042304700098295,-7.300422019997203,1.4039311500010259,-6.8826868100166205,2.6020184400026,-0.9006334999979275,-7.211269969898632,-1.5341105700525646,-2.9706790699765477,16.971744090000705,14.12366796999883,-4.571767349999232,-7.794998019999849,0.5997683400001736,3.230788319999893,0.024253419999982134,0.023322179999985836
15.850000000000069,28.924961020153987,-22.318673479968723,-1.1318192900131012,-30.159141600209573,-36.45551722990042,7.9298278401711615,-6.3738363400121205,-5.493579279994954,1.249639600000457,-7.4693560300058515,3.5681367400055146,-0.7878309999985332,1.264982330059968,-16.500267920125715,-2.336965950007629,16.732461919996986,15.671103020001922,-3.80093020999894,-7.67462522999974,0.6822243900001635,3.1653305100000324,0.022906729999994956,0.022405389999997322
15.90000000000007,-6.178710200045521,-35.958224450050075,14.923343190060734,10.310926400066334,-46.93925114007881,-34.8694233402744,-3.4780145399884503,-2.6701513099954326,0.36029843999870087,-8.699699379996156,3.4145015000007524,-1.2533835100009756,-15.239343180077958,8.929178090023484,11.823896640053878,15.83279207999941,16.996044530001495,-2.9361001699988667,-6.732432779997863,0.6419251599997944,3.0901007299998007,0.022680550000001628,0.021758410000003996
15.95000000000007,55.4422031203356,3.8500102199500237,-2.5470795599917726,-76.97977697042396,13.26901339988548,125.05911654975006,-9.391655709995575,-4.045664370002511,1.3175949600002472,-11.753165050010175,3.9332464000122176,-0.5707739899999524,39.767919469945745,-38.75874095027845,-5.124899350008715,14.538265479997348,15.561243809992842,-2.3951222699995647,-5.689230009999306,0.482572479999681,2.9548767299995635,0.02373260000000581,0.023928550000003577
16.00000000000007,34.229098979893216,-28.08208679004278,1.1272315400030424,-35.18389392982808,0.8461846201071882,33.76446949994404,-12.434999210009352,-4.2442755599938335,1.4667309300009457,-14.476832729996097,6.163788360003218,-1.7687996500006353,9.300543289968738,-19.168487999914056,-2.2960391599880294,10.306310169989464,9.473737769993857,-2.0272290099991297,-5.466021479999225,0.2120722699996504,2.4200236099990775,0.02217694999999866,0.02103041000000241
16.05000000000007,44.96317340981334,-2.679421750091036,0.9854119000034913,-43.0351689797744,96.75519107003522,29.837793279788524,-4.852735099993104,-4.6041432899949335,0.9118485900011957,-7.19901340999985,4.644506879994741,-2.0089985899973986,22.60488960990761,-27.855126019854147,-3.9905591799777183,7.388028110000622,7.894023889996884,-1.5285963299998668,-4.643237339999182,0.13296111000003846,1.7606256399991573,0.021981329999997894,0.020553570000005104
16.100000000000072,17.474773710070995,2.8408846099405913,0.05508454997689466,-20.241046190065017,32.04617741977378,-5.472189190088721,-5.597773410011924,-8.263212950015722,3.1274497600051423,-9.076102200008924,-3.01775858001305,0.38730953000349827,23.416395989957408,-8.141529490051761,-2.529305510034761,12.045745040013944,9.728823250009594,-2.2517930300021844,-5.153540310001784,0.04973988999976387,1.331718519999706,0.021109560000001998,0.019936459999998685
16.150000000000073,-3.349776129788099,-14.025526630065016,6.182471709913189,17.167372659624807,-49.26675573998992,-11.623513710035482,-17.027112620016727,-8.20470855999271,5.871349350004703,-14.24141839000575,-3.000361719993945,1.2455604899984707,21.542894709978455,5.383152259844328,6.5652358398748705,24.142655760019665,18.55449506001523,-3.474682040000775,-6.197448210000821,0.0020594200000784973,1.5563308600007049,0.02284333999999774,0.02191304000000209
16.200000000000074,9.867456850091273,-29.040499069947675,-4.720412270034783,-6.388777630233534,-39.766467669971476,-21.457024849926146,-22.036150920005557,-4.314651769991892,7.090898720001853,-16.266163820001715,2.428567910004248,-1.0993891500043342,19.203950350061007,-1.2664706800701035,-4.9377215500499965,36.35166014001653,29.215814150012058,-4.049364820001471,-6.412211649999945,0.1654385400003095,2.1158684500007956,0.02192767999999516,0.022008260000005782
16.250000000000075,11.250302420023175,-19.672093439932155,1.9073525300175496,9.373113159978505,-17.740027659939464,-3.1312865699121293,-25.32772623000728,-2.8115657400048253,4.918016609995713,-21.493152300003768,4.556083619998111,-3.64058866000697,39.64569615007842,-3.82046475002467,0.2565584800123888,43.196245550008285,34.19142732000388,-5.282182880002073,-6.590580350001069,0.42004288000041756,2.5578281400006704,0.0243792500000057,0.022686540000007784
16.300000000000075,10.388775120005796,-31.148720400056384,-2.0908147500135974,2.219354859896824,-39.06229553010342,-21.845852440086972,-29.640033230004825,-1.053434169999067,4.359124089999774,-21.834046759996493,5.492331959998197,-6.726597370007611,33.34337383994464,-2.651073770002194,-1.9614703400087294,49.70897737001376,41.78070881001743,-7.288163730003769,-8.481433780004192,0.7068947400003684,3.3053118900017022,0.02237193999999303,0.021841730000000517
16.350000000000076,15.242994079972378,-38.177237059981486,4.660203590009687,-12.793495240040455,-69.80438717000351,-14.620380999908368,-30.313760679999454,-0.05752280999045254,2.4421456899973095,-26.902282800005437,6.1826547200015645,-10.01091865000224,33.05997370002838,-5.834805759982956,2.5293002600157446,57.70375859000696,52.04476776001082,-9.761103890003605,-11.136426020003304,1.1075225600009266,4.356456700001084,0.023682539999991238,0.022213819999996436
16.400000000000077,14.514236019969868,-29.605263860008503,-2.1800531700150363,2.823098410066364,-33.54128567992192,-20.686319519967693,-27.875375569996574,-1.7688135800034408,-0.7690991100017536,-24.78676413000022,5.111203310004013,-12.776268100001941,42.022339190005965,-0.993125769966399,-2.8197511499916432,62.23508736000579,59.033462620011775,-11.8822016200034,-13.275683600004037,1.8326678800009515,4.775144080000658,0.024732659999997013,0.023326659999996027
16.450000000000077,12.513713410025991,-32.66932674003541,-0.4608551999867372,-3.4608980000169813,-29.017679759949676,0.33932624998724803,-27.598612009999275,-1.7933329100067716,-1.8389489800002732,-25.635150730005776,3.5762138299983084,-14.178860710003109,43.28139822998253,-0.6251088200190976,-1.012285229994353,66.64093023000848,64.50444819000508,-14.046993180003126,-16.03884506000414,2.3483859900006676,5.435119770001295,0.0220960800000019,0.021029459999996326
16.500000000000078,18.763619879863818,-37.16721298992278,3.500385759941654,-11.151481149835458,-42.13290782004378,-7.50968855991321,-27.850385290004773,-3.2570678999864517,-2.398501980000047,-27.129711010002524,1.5215698499910242,-17.073313710006122,42.74300710007404,-4.373670249860156,-0.9480993200104834,74.00144002001096,68.52964767001005,-16.261616810003638,-18.56574725000403,2.910352590000947,6.401617690001743,0.020927449999995948,0.02110623000000338
16.55000000000008,11.855791969969907,-36.545119990027096,1.268217620001454,8.497514170000397,-28.642600169936447,-2.400641920034542,-27.39958119000284,-4.81611815999838,-5.390648380004776,-28.778867090001242,-0.9829071800117868,-18.930138470000948,48.81703163998952,2.422086090018108,-1.0551203899983344,76.24255990999877,72.11690105000137,-18.11163951000212,-21.084128770003534,3.621232420001042,7.273495080000975,0.022541460000001394,0.02016351000000414
16.60000000000008,2.083622890157617,-57.83419397980057,-4.658286889876314,14.520194389653614,-57.80188046966437,-59.21728133944089,-27.68114329000373,-6.060819749981368,-8.328043510003088,-29.181383279998617,-5.090934979982283,-20.555354900004133,25.649912890250697,12.143902669814993,-3.2116753499728636,74.92892532999855,74.20065173000286,-19.665143460003335,-23.619810680004587,4.296978630001098,8.141858300001912,0.02071486999999434,0.02047158000000306
16.65000000000008,1.463864190212914,-40.88983444986506,5.318160480065999,12.58262521958858,-56.684204819878374,-5.640502789651977,-30.05079331000544,-8.177551459985313,-10.811567660003949,-31.996408900002276,-5.7970376799911465,-23.94138280000642,54.47944248016296,7.5572306298050576,9.596663209920894,79.65638899000905,79.10697426000769,-21.970273680003753,-27.074253190006218,5.051966600001139,9.565877850002419,0.022256379999996162,0.02001386000000223
16.70000000000008,49.08103646000294,-38.86934229000908,13.844612910027676,-79.7020048201924,-61.73098031009881,8.805710429978166,-32.13887346000945,-9.255709079995086,-11.388820000000102,-34.56230815999741,-9.590974490016396,-26.98777110000411,65.02195400000907,-29.491859610028953,-14.562701970006628,85.80302851000872,83.97815476000493,-24.05076662000363,-30.934099780005898,5.59194298000069,10.943183670002073,0.020894789999991614,0.02061945000000234
16.75000000000008,16.03033273995115,-43.714329960020955,4.0698275100165215,13.214168100092252,-70.67582844009961,-16.145038260140122,-32.91974566000984,-10.510646199996732,-12.084927350000914,-36.71434424999407,-9.584210269996358,-29.0647989800027,63.94856565996113,3.1792240600224857,-1.7474747799529209,89.86199269000494,86.89118586000146,-26.034469810002463,-33.808528970003664,6.090067570000759,11.914632920001274,0.023466080000008674,0.019875919999992244
16.800000000000082,14.255318860008588,-42.9391344499249,7.7829942000065,-13.20999757996519,-45.10654937991357,-7.955997709860428,-31.37945186999487,-9.382228070000615,-11.729822189998892,-34.40327519000026,-11.187769479989003,-29.57078246999808,63.358647570075455,2.4416062499917457,1.0447016700137461,90.26693532999694,86.53544087999786,-26.66664136999902,-35.339661110001344,6.3571357399999195,12.46525982000036,0.02127936000000772,0.020198529999993754
16.850000000000083,-11.027850899691739,-14.439069279990496,2.7409543100853564,49.48334335930333,-3.8631921899026693,63.58219049008049,-31.928543489996343,-8.740650179987608,-10.646941649996409,-35.19365388999428,-7.466802900007324,-28.078668019995735,97.53464001001417,23.902589469719405,17.08322706985456,87.21680112999228,84.33406347999318,-25.27841398999696,-35.2482983699988,6.1288757799994125,12.425704029999578,0.022714499999981003,0.02099863000000099
16.900000000000084,4.10542412997728,-22.47173235983162,5.991764690005213,24.50472994004174,-19.37824342970218,47.6951296304203,-31.0207544099968,-6.904007799984571,-9.952692720000371,-35.54928065999995,-5.228699299979499,-24.79983015999251,84.17337703019827,8.634961030010414,5.708016520012055,82.80257461999025,79.19936792998743,-22.93570644999573,-33.94449663999691,5.698978339999041,11.790354109998347,0.021727119999998816,0.0204541999999988
16.950000000000085,10.499365729966689,-30.161733480027,1.7794112499886126,-6.636868089933563,-11.39033450005747,7.301595009884579,-27.054948099995208,-4.787816579992445,-9.213164379998634,-35.15046843999621,-3.1398864199950443,-21.04873792999431,64.83231580995131,4.510193280029255,-1.1491933599972348,78.19367973999204,74.25812152999194,-20.259245749995408,-32.11996451999734,5.02783877999886,10.870706949998613,0.022106529999997092,0.02048134000000038
17.000000000000085,6.822788519871194,-34.22207747998739,-1.7219573600693918,3.5852376900811116,-3.2895556899761305,-9.565514929967026,-23.94152698999837,-2.8589229999870986,-8.34321922999724,-32.76905728999327,0.9549227799968913,-17.14918290999119,52.867306150000545,7.066402410116931,-1.3709829400083013,72.36669808998931,69.7009594699921,-17.814017549996585,-30.774464249997788,4.3658979099987665,9.891764309997757,0.022342960000000876,0.020625540000003877
17.050000000000086,18.051115369986906,-26.152537729989362,6.216476850005142,-28.024377789935386,8.334835890020466,-3.5653733700302284,-21.449515969991904,0.35943357000018017,-5.56696885999375,-28.763759989991662,2.893763380003268,-12.256800939993171,50.82000979998665,-7.401522669988116,-1.1010802699899553,65.91933401998877,65.26884404999176,-16.383644179998164,-29.700431679998555,3.4794030899981427,8.57037911999823,0.02100753999999615,0.022173959999998733
17.100000000000087,8.806973930146093,-29.502933799972315,0.009505790064045616,0.3854771098301457,13.390854290021405,-18.79159596995941,-18.753358309995132,-0.8518605200067654,-2.3394521299923796,-24.019095889992684,4.071854870008129,-9.55848967999655,36.75904408001015,2.8491744198683886,-0.8076527599877543,57.98654729998465,58.218758109983646,-14.970889189996964,-28.30053801999621,2.4249374799984222,7.774368339998572,0.022462679999996574,0.021464159999997325
17.150000000000087,12.428513630014471,-23.909862739981733,1.4417616600103564,0.3918112899646635,8.607525459998042,-7.7148922399776545,-17.166066439997344,-2.4779566500020276,1.5691572900053368,-20.454453829992268,4.232581699998146,-6.108661929993749,33.367959289999725,0.33046831997973947,0.26710189000291895,50.23689744998915,49.40928158998665,-13.150235649997287,-25.535471839994813,1.6676085999989396,6.718264699997961,0.022553440000000334,0.02162334000000097
17.200000000000088,9.633650859995713,-23.46946592996507,0.9261781100013231,1.6962915499945264,5.796563779981953,-16.059528299981743,-15.683325469995236,-3.5856854200037116,4.21540024000435,-15.797410159997511,2.2017815899951296,-2.7098190799920334,24.33554073001543,-0.3732895599975429,-0.913371879998529,44.2499356899873,42.36775357998426,-11.84668264999783,-22.470447679994006,1.141789669999142,5.440386429997392,0.02216715999999991,0.022098129999998696
17.25000000000009,8.37812246996092,-19.60456501000879,1.3970735699978905,-1.0794586699387723,33.5914457800122,-10.512853920031784,-13.833688449997021,-6.688028980003623,5.735147640001359,-12.672749669996143,-1.3110566600062772,0.06512358000524154,22.540609239977115,-2.0557152999737385,-0.37230052999386565,34.93415681997926,29.668937639970913,-10.675928559997773,-18.669886399992713,0.7480123199994254,4.060824779997703,0.02294840999999563,0.022509970000002787
17.30000000000009,0.46300259989213566,-24.718388890009972,0.5730299599934875,2.2496802600882493,68.14864464008312,-18.02770788002917,-11.286945329996751,-7.210401979995096,5.205159919998624,-11.58282295999901,-3.5092411800049534,1.871577500001475,12.722064579982376,2.1822231700820227,0.3642412600160928,20.427251719973103,14.26428838997636,-8.453330919994452,-14.577689909993108,0.42311969999942195,2.8649642199981105,0.022699459999997073,0.022278340000002467
17.35000000000009,0.4502311097609173,-25.49634308004232,-0.5652761700279938,-10.016231159645779,65.18212197993303,-15.433640659997675,-10.977397860003443,-6.056379819991029,3.6444564799991452,-10.96210828001135,-3.9929412999959926,1.571582570001703,7.558332949959105,0.8232837102086843,-0.03902340998313977,7.612566359983356,4.846937459986905,-5.512303629996321,-11.725160239997493,0.21615599999980833,2.194257029999608,0.022185859999992848,0.022081809999999244
17.40000000000009,-19.614790380353735,-17.63395648997415,-3.0476409200313905,23.466143780504908,-11.252430610185577,7.10150000007877,-14.932514260012004,-5.265109879999439,3.0853348000006733,-15.827844370006403,-1.5846121700036555,0.6795475399981371,14.900115250017567,22.19957313030548,1.303763160024685,3.354945750004231,2.1397917800026742,-4.790113890001267,-12.522464170005051,0.14079991999988717,2.5688001800015536,0.02185568999999283,0.02157754000000342
17.45000000000009,-30.077469249727557,-11.704601950093222,-1.4123775499944706,49.692276929619325,-112.08565458016005,19.64323702972377,-15.997810469985037,-6.376289480002366,3.0048518799982133,-18.078392930006576,0.19503390000771537,0.21472053000055857,17.824021119905048,33.274683319771576,2.986448329974696,11.267057610020933,6.113359910006758,-6.688252160005583,-16.06737003000786,-0.017108150000666494,3.4788165800015305,0.021584930000006664,0.022216619999998542
17.500000000000092,18.85293604011015,-27.436944730278753,1.709868230015684,-10.900858830055334,-109.5674840595649,-20.01367533992552,-12.825874450026367,-8.678338140012556,2.8944169900032586,-20.352876780025504,2.186349090002418,0.20672111000307422,6.630251449882794,-6.340814770084713,-0.5923402399985129,18.74596798000209,7.403846989997204,-9.563446130003422,-20.243980880006262,-0.4043527900002066,4.159997090001125,0.023415250000001032,0.022796319999995374
17.550000000000093,-23.553337359669356,-24.80811103015681,0.9947815200408651,41.2808434495837,-30.623168979650142,11.96268355016062,-15.379530960015918,-10.557492090009546,3.685055310000195,-21.118083570016488,-1.280864540000029,0.698285660002659,19.885872329961064,28.82013986971922,3.2371286100104424,17.00903928998929,5.921656059996197,-9.778301599998041,-22.005126400000954,-0.2915000699994161,4.537992060000212,0.022344770000007105,0.021860279999991437
17.600000000000094,12.043783170127794,-23.248898599918636,-0.3058282599561608,-6.554580730157641,-28.05304650985041,-0.99327952967815,-15.622875980004306,-8.658602290006819,3.111739770000124,-20.054483050005153,0.20468370999783658,0.7153259000006116,19.726986670110602,-0.82479695011375,-0.30814146997043557,12.422497129995081,3.681391549996587,-9.007050709999904,-22.48274412000189,-0.09945988999995653,4.531567620000184,0.02309029000000238,0.023217450000005222
17.650000000000095,22.261326850136985,22.67241700034167,0.6418157400027931,-31.119442390337625,-52.55073852014975,45.4730408704285,-14.45460898999334,-8.117183669998266,2.977485880000088,-18.624303299987716,0.5102973399941089,0.436913129999475,54.23301988026553,-9.383798070123335,-0.07565551000356285,11.9310945300016,3.1150492900018594,-9.270450300000139,-23.781752820001728,-0.19594032000026856,4.794423170000399,0.023421740000002814,0.0239029600000121
17.700000000000095,32.04840144021113,-36.67498260997554,-0.2256076099931223,-51.419987890448006,-54.08041067995761,-17.000356599861277,-15.314738709999475,-7.295427969996809,2.5843700299998913,-19.90678167000051,0.43257629999095076,0.47813487000122445,7.125977100040627,-19.93060133020322,-1.4577350800106292,11.619843420000972,4.393278810004172,-8.984731549998754,-24.003996929998795,-0.22344341999997896,4.870713549999836,0.023945210000005216,0.02443580000000251
17.750000000000096,-11.455718699935991,-23.18276169957908,2.3782915099611714,62.41675484946018,-2.3347397002043717,13.854863460425788,-15.684498409963236,-7.928616229996568,2.237812940001243,-21.022497259972877,1.761683129964343,0.7721928899988133,22.697306990288485,24.48655034989636,3.5483593899593595,11.32053940000426,6.178676590004251,-8.340798079998672,-22.787556769995916,-0.25506214000023386,4.664983179999084,0.02193275000001188,0.018983710000033925
17.800000000000097,3.086335990171972,-28.53348040951795,3.2020011299399247,7.678166489462461,-32.63905317033216,-15.10117902964435,-13.197126939965235,-7.3644441200002815,2.4196275599978287,-19.12830746995676,-0.8280333900239047,1.030438409997399,11.765940050310927,6.871713349835314,3.418650979935631,11.088739730003935,7.967232150008215,-8.040390709999452,-20.620261469994485,-0.15645232999960804,4.081247309998613,0.0229105000000078,0.02299194000003684
17.850000000000097,2.421698000093634,-48.217614410165304,1.869335669924371,9.83751270986076,-62.775892670502465,-62.273025500610814,-10.799882579958787,-6.898582720011149,2.1630798599994816,-17.160290169972626,-1.9569717500103894,0.9523912099976974,-12.112260260258022,6.8224079499401356,0.9736129399149243,11.075951510005334,10.679077860006066,-7.187249439996622,-17.493164409992755,0.11465043000023738,3.7741591300000334,0.024086520000021566,0.022221660000004563
17.900000000000098,-1.9647736900755928,-3.638835959800078,5.434527030030659,12.345481800107677,-21.803735919882698,37.63459276034939,-13.023101750001526,-4.856280989998279,2.1188227100010746,-18.19191519000066,0.3007040300002909,0.7639722200006711,33.413975370179884,10.104207260061328,4.968223600034261,11.135234789999458,11.114900800001102,-5.74703731999821,-13.977656669994367,0.1666020199999047,4.038931190000259,0.022731969999997544,0.02118128999998676
17.9500000000001,7.913158240051989,-28.373323669988118,0.7308118099987759,-3.5951500200754696,-25.336612419964506,6.175874320077487,-14.047520319998368,-5.712428340003396,1.9238537400006055,-17.336860760004893,-0.4683570500028446,0.5042367300009788,12.552020670017665,1.3859974199579594,0.22066949999200636,11.074907510001701,11.627681210000347,-5.182669169999309,-11.697297589997032,0.0941190499999801,3.818116889999384,0.02277150999999088,0.022731699999991122
18.0000000000001,13.725179370048185,-27.60490290001473,-0.29092157000531527,-18.75995798011425,-9.150206199705105,17.60506496012236,-13.875233670006526,-5.0105802899951755,1.9294737300017295,-17.406719050018484,-1.3469037700021047,0.7957133900016315,14.81637185003595,-4.43529993004649,-1.2588064400151795,11.162419949998258,12.789381909999628,-4.906927110000328,-11.064369980001386,0.08519405000005667,3.754114560000359,0.02120295999997923,0.020166429999966904
18.0500000000001,10.793061550075553,-48.063925569896995,-2.1109410299960953,-19.160393910096133,-79.2237486598365,-61.70873216963597,-13.542342600006284,-3.106453710004264,1.5869029100012628,-18.042214730011175,1.366527030004703,-0.1379515100000623,-12.877268159868054,-1.2297423100510827,-2.8864269900039496,8.957400799995,11.139180599990175,-5.136301050000693,-11.68909612000022,0.004009369999881961,3.8424010099996586,0.022881350000003443,0.022404219999997498
18.1000000000001,12.441697990001522,-34.38406448998911,2.2078999900028684,5.410476230080644,23.866996380170846,20.420215490085006,-16.232568690006044,-3.6692910700003036,2.127007110000533,-20.26403555999284,4.687606330004262,-0.4297977500005904,13.313841870019697,-0.9090690400032354,-0.08772648999871765,5.921604209991964,4.449580089987684,-5.17696717999957,-10.290440209995317,-0.11058816000020752,3.166330909997884,0.02322544000000017,0.022463539999999234
18.1500000000001,13.319862319958897,-18.351478000045084,-0.04738796999387016,-15.69686705992268,69.13199802006768,12.550326919878295,-16.535043929995503,-4.035063470005796,2.6006837800020026,-12.591770869996704,0.3359681799893588,-0.11340162999784398,21.63590049995894,-7.3609902299713905,-1.7301096899896917,2.641384189999017,4.133845400006379,-5.219145390000613,-8.792574630000306,-0.1348735999999735,2.328920699999149,0.022322839999998373,0.02143418999999905
18.200000000000102,0.6728992599203449,-4.078492810342984,-7.076433799951168,12.695741730066883,20.658529879705533,11.682546739591269,-13.67231593002525,-10.50779699999539,4.692525860005339,-16.110271310020153,-5.098161299996548,1.5650462900063675,31.179117889725834,10.166395010035732,-5.506884219930303,6.444502080012403,8.203656770007761,-5.640669810002154,-9.960130470002463,-0.3757749200007222,2.098681369999675,0.021951280000004295,0.020795430000007567
18.250000000000103,-7.824349920235826,-0.44810884002998375,-11.463789490132488,34.21204852037556,-22.587140150110447,5.406250109916097,-21.171423570008635,-10.118723129986025,7.00571581000328,-15.422713019997712,-3.0971223999926587,1.6703822299984195,41.08812930997459,18.46414133024493,-5.334450070063667,16.699096440026132,16.41079452002534,-8.289904030007978,-10.880203040003119,-0.3305825899987258,2.17004925000118,0.022317760000000426,0.021372199999997604
18.300000000000104,-0.37669056998504735,-18.51725238999803,1.721589300017369,-2.5633631500294527,-58.57854545000219,-27.282156349940767,-26.17586521000838,-6.344111300000053,7.916017580005841,-18.598018280020256,-0.1873514299932461,0.8713779599966036,32.88697113003423,4.144357829993832,5.393890960010805,29.108406740024684,28.043222490018547,-12.110205010008816,-15.15485122001526,0.5204842100017364,3.424676650004111,0.022812649999996763,0.02232419000000357
18.350000000000104,0.8503832800360653,-33.71726814998796,-4.316644339993296,22.175046139916926,-49.39304873991233,-33.71975643998524,-31.856734190009625,-3.95530264000077,7.772927659993651,-27.15915939001407,5.393626089996879,-2.0937004300090214,35.84478870004572,10.099785069965716,0.4954350799868621,37.95443304001196,33.996434680006544,-18.74547016001618,-22.415372280008828,1.6028842200027311,5.410184330002789,0.023128110000006478,0.022687740000011527
18.400000000000105,16.70032119008525,-40.645117129969925,-2.2345442200074235,-1.0198996201647221,-33.096933310018954,-16.028573449905316,-34.49004912001476,-3.9280061400170383,5.995382909998131,-33.136290790015586,7.176815129993136,-6.671778980010866,41.152157280061544,-0.02619024005661874,-2.3768639500229405,41.23744421000992,34.75593283000477,-23.344394730001675,-23.46667012999975,2.5725312600008943,6.048907980000884,0.02413471000000503,0.023040549999997818
18.450000000000106,18.692712759880322,-30.197404679984313,-1.6929226200165466,-7.872434399842888,-40.92625475008967,-2.8733470600375135,-37.900690870003295,-1.4907369999859703,4.695803229993796,-34.561981029996446,9.524733630000163,-11.792490140009217,55.723746680007196,0.2956044000967242,-1.683652229974569,46.373496970012134,42.05842233002279,-23.593719450002617,-25.002850760006247,2.9434483200012695,6.9639596300027256,0.022613239999994456,0.02172050999999473
18.500000000000107,9.850891149888524,-31.24953187003201,-2.1410777600183324,-1.8504625598040116,-44.994860369883966,-12.631941149965614,-38.56725966000698,0.6991292599990931,2.147075789995039,-34.828544239997186,7.644824519992262,-14.758385600005681,58.51815539999842,6.950121930089067,-1.8028686199770665,52.070842980008166,50.53350450001199,-25.708666310004446,-27.716858290004797,3.6833877100014,8.100872150002061,0.022430209999999617,0.02123341999999599
18.550000000000107,10.537063560017677,-37.44659903996633,1.1643995500092288,-6.189699220016971,-32.98263499995753,-5.075094969901965,-38.58182553999448,-1.044997170002465,0.46089899999550515,-35.15093602000155,4.429752169991183,-16.745652100001884,56.84028841003192,4.759650929984159,0.48338117999517133,54.33214748000233,54.23223745000661,-27.25691430000411,-30.017513970006146,4.122413700000994,9.070027250002385,0.022223489999996338,0.021256200000000156
18.600000000000108,28.125858469879745,-39.53367385993627,11.037333849941433,-28.77395966987308,-38.290200449942766,-8.192318849923701,-34.42585199999276,-3.487980259988948,-2.018948910005536,-36.55106363999413,1.2786472399961115,-17.395323089998396,52.703912080052746,-11.703052479889443,1.4322263699953939,56.926740490007205,57.27356708000782,-30.98007644001144,-34.182236850010966,4.951208960002352,10.355271900002558,0.021887819999997567,0.021628889999995717
18.65000000000011,9.35332580995957,-28.840652699996156,-3.6195529899980547,2.4563055399756513,-10.791523369922665,-11.195324560012534,-30.034893219994792,-3.35143715999343,-4.384465530003865,-30.594083939983307,0.9620002299924167,-17.026742140001502,54.18411633999071,5.906238960018122,-2.9234980399918165,59.77963175000567,58.718153960001686,-36.11296668000958,-38.77004660000833,5.838387390001178,11.173243070001561,0.02158894999999805,0.02119359000000169
18.70000000000011,8.624490030158418,-43.64320326997585,-2.157416929917894,1.2173322395460975,-27.07995071006554,-23.224692529865894,-30.220268580020303,-5.189089900001426,-5.615702400005215,-31.65502878999472,-1.6907885800098468,-18.60292129000389,42.26071898003687,7.139903009810851,-0.8280229100209051,61.69079422000398,62.22762349000694,-39.7196868200066,-42.694347290008224,6.237633270001037,12.156111900002186,0.0225492199999943,0.019886900000004294
18.75000000000011,32.15648099995984,-36.26363327993532,6.17640722002808,-31.01873501994769,-8.116005560024009,-11.271504849927794,-31.29466186999766,-9.591912709994295,-6.858390870003603,-31.992643169997134,-4.8094120099988755,-18.973029350000107,53.691723970046674,-16.491159789986128,-5.342721379956657,61.5499712400008,65.0358146200007,-41.33081034000103,-45.085376380002344,6.713217660001121,12.716509830000597,0.022793249999987948,0.019714579999998566
18.80000000000011,8.551261309916576,-41.90902676001575,0.25907499999559036,26.31855028003062,-22.435439300157462,-20.320428889993746,-31.15822621000696,-10.583683559995738,-7.289814039999054,-33.97018360000925,-7.095410450009166,-19.95081152000415,49.742866419994,7.163871820068256,1.808751070036576,65.02096012001672,66.88165046000819,-41.679392610001905,-46.109035940003196,7.024605070000336,13.185615160001618,0.01994093999999154,0.019090729999999008
18.85000000000011,12.245768670030504,-44.776229390002726,1.894796889942893,-0.930496599791307,-55.88187139988841,-0.6419380500175756,-35.34591174000421,-14.143950830015324,-7.483098650000831,-38.29780584001091,-12.61938296001092,-21.853578080004695,59.744815950036546,3.5705837300296124,0.7538829499281332,73.60043463001874,73.25013075001829,-42.828076490002886,-47.985264610004904,7.376757900001479,14.06655716000215,0.021014640000004112,0.019710000000001976
18.900000000000112,-11.137994929846538,-44.215757019928034,-7.682542450033377,57.39077004961248,-99.17973066989616,-5.844840069801229,-40.68729683999164,-14.378866329981529,-9.235116480000777,-44.36462776998931,-11.459125229999096,-24.60681591000671,71.65963839008086,26.7990121899198,8.532441279849692,81.93354934001601,79.6860337300054,-44.87724526000719,-50.07742358000454,8.320324210002289,15.038912290002246,0.0230285899999772,0.022164809999987146
18.950000000000113,9.883200659983558,-18.60854569032405,-0.83322959999946,-1.7046868199480318,-25.526309750478156,59.563985899316094,-39.94221239001769,-15.042904539991111,-9.23044237999798,-41.06278577000097,-15.556257569994964,-26.579828110003344,104.38457932963892,6.602544910021376,-3.460570719984899,87.61493986000953,81.31472160000347,-48.07355935000594,-51.86696040000301,8.953637750000253,15.828712770001124,0.020408890000003222,0.01897861000000153
19.000000000000114,9.441913289759281,-43.488595060222366,1.116409069952838,14.812746900455586,-48.149945320261665,-9.74601883049001,-40.248913960004096,-14.123765160008887,-6.772476879993884,-40.82149445000302,-13.813190880011982,-25.80722385999488,73.25774227975933,9.220992790201704,1.0787223301022593,86.05127826999178,80.02114450999534,-49.04064831999753,-51.90927564999722,8.68392233999867,15.714589259998531,0.0214825100000174,0.01984565000000775
19.050000000000114,15.516539349946234,-33.89516786003337,2.778405859997485,9.835926489970532,-21.801635879993242,10.612476659998952,-39.621172209997624,-12.896520309994461,-5.492298599997962,-40.62437573999978,-10.48558478999996,-23.276743319992615,80.09514332996724,2.18911698003068,-0.6312034199739045,81.32177455998993,75.77457657998647,-46.71710014999252,-50.33144868999512,8.008423289998252,14.88475816999774,0.021636570000003904,0.02010124000000259
19.100000000000115,22.64039200010262,-35.884900779984704,5.751269800040436,-12.49426278006722,-1.5957846499605464,2.095652169939055,-38.38164070999149,-8.776091539974786,-4.526417859996389,-39.874639079995774,-5.862983199974404,-19.72701247999138,74.00949968997607,-7.1083776600862985,-3.29326460002918,75.85629422998672,68.90277999998277,-42.60026679998819,-46.666941079988135,7.263574429998151,13.446292589995586,0.021344479999984716,0.020178269999998867
19.150000000000116,10.826368239933158,-32.57916199995339,1.4439069499230301,-3.884215979852894,-12.64765075006698,-1.852569149974967,-36.59197924998577,-6.712536469981449,-3.614187229995698,-37.126710149996356,-1.4264561699746723,-15.328487569988864,67.35683282000139,-1.3262122699089012,0.5277883599727623,70.5434065799865,62.938518129988076,-36.346885769984766,-40.70389712998566,6.133531559996446,11.26201090999449,0.021452259999997385,0.020480659999997018
19.200000000000117,5.295686870002457,-36.48275777002318,-11.703419039978364,20.2106617800186,-9.565792140010885,-20.234554070075475,-32.44553225998655,-5.876674839997848,-0.7131599899930435,-33.440943699984736,0.3284480100031918,-11.035402989990382,52.818493479937885,9.7598538599875,-7.111495159981811,65.0080837799885,58.01866647998722,-30.702568359988653,-35.02399450998823,4.461211509996083,9.01451983999534,0.020829899999996727,0.022228569999994303
19.250000000000117,8.10446855001712,-25.5008504699394,-1.532993970062817,10.46251168997035,7.697994690024023,-18.406563419894432,-28.706049529986977,-3.8978351300033345,1.948298720007044,-26.92370862999144,2.978877050002719,-7.66990619999289,51.55843950001729,0.1703062400285833,-0.2822996700422987,61.21370741998982,52.92239815998752,-26.01238910998904,-30.126003929988244,2.9484696799968524,7.307746509996168,0.021908250000006103,0.021618490000006426
19.300000000000118,8.101798909974999,-27.056996760031687,0.8218425200168423,5.73747904014543,9.48180818016031,-18.546956080057157,-24.722428359989344,-4.509635480006569,4.589355340009578,-24.321627439999578,1.5869479199932055,-3.6081972799888598,40.42423530997619,-1.2897245799786539,1.2120492800107858,53.281070979975,43.9117306599704,-21.489155439989933,-25.341441869989893,1.7802658699975014,5.560015529995901,0.022270480000000543,0.021811150000000293
19.35000000000012,12.969962440012447,-24.022454239957312,1.3181980599703462,0.409309909968977,25.189225049878203,-15.03538762993376,-20.47608653999382,-7.4756735300085735,7.913715100006694,-21.116989219994142,-0.41799715000068316,0.11103646000715597,33.55439605000648,-3.8764506799902705,0.25166985997826197,42.53544334997439,30.62882504996949,-17.878638199993574,-21.589843119992047,0.8618769699982936,4.113944969997285,0.022961290000001747,0.021912469999998768
19.40000000000012,6.301753500131088,-18.308358650032492,-2.129514610011749,11.130207799801832,37.89624279015205,-9.835764129983229,-18.53522119000176,-10.592554430005652,9.214752070000038,-16.585136159997813,-2.2668325700036798,1.401359040001497,29.548252459981057,2.8346580798960623,-0.6976427700528693,29.405510109963608,16.82340917996583,-16.056349899997173,-18.662581159994605,0.3533728299990603,3.1440026699979153,0.023283090000000194,0.022301280000002296
19.45000000000012,22.577458920271063,-16.11579468992591,-3.325111900080027,-21.647144710325357,48.817774750046446,-9.610383519924229,-16.27217911999192,-11.776627960009348,8.977858670000213,-16.23675892999645,-3.706960920001706,2.1379080899979317,26.177557760049776,-10.773677970177973,-7.9411679601621215,17.871140479983826,4.497056149977974,-14.876110519997198,-16.720378089995528,0.03840743999961281,2.33515053999854,0.022400969999996693,0.022058630000004804
19.50000000000012,-5.434986559881433,-25.52407430003867,8.782523029925947,30.078833259845037,-3.9139263202293852,-30.477420130040166,-17.6166556000087,-12.635426239998264,6.903455619999502,-16.71056573000641,-3.1907386599988237,1.9173415700015681,13.228553249963822,6.699217769935692,10.58353672991219,13.09255312999032,0.8864947600015501,-13.83787930999752,-16.5937142700046,-0.05189942000028967,2.2973216100008305,0.022889900000006846,0.02120749999999859
19.55000000000012,-4.742458750009392,-13.807545780140632,0.30154757997314396,15.501158559964288,-10.37975309996436,5.482008619854657,-19.00944317001092,-10.788553969980896,5.719596789997675,-18.978112020012055,-2.6755925499885893,1.7033606299967046,26.285628279903932,9.054045179999754,1.759250149962741,9.520551739989978,-0.6712346700117664,-13.047101919998891,-19.0400989200055,-0.021102309999438615,2.839692970002062,0.023283310000004453,0.021496360000006483
19.600000000000122,4.920116860249891,-49.10671425020004,0.4523381598496634,7.884489089486307,-39.324024640050546,-34.564128560238174,-20.438860390006347,-8.135326040013037,3.8991478399932795,-20.34111355997617,5.12895166998374,-0.42531763001041456,-2.093572450155788,3.188955219814881,0.4217135998392947,8.566276910007172,-2.939431039992486,-13.07628307000121,-22.114855400010065,0.22089998000041944,4.211550400003382,0.022441729999986514,0.022258570000001237
19.650000000000123,10.608953659714523,-19.966528300090985,0.7107743599854582,-7.104553629741621,-45.94848279005851,-0.848996150121585,-16.388141840004266,-9.026895969992806,3.0283646999997944,-18.91260404999733,3.2628209099810173,-0.10842615999785286,18.468139899900418,-0.8565814597846853,0.048232380015404086,10.3290159599967,-1.1404527199993435,-13.33906494999941,-26.540253470009155,0.3276744400001587,5.168076200001134,0.022308419999997022,0.02202167000000408
19.700000000000124,91.38373438944885,4.326845839658191,0.6686044300207883,-116.13645321928328,-54.985266940061884,11.772492469642067,-14.243060770018815,-8.556652549990357,2.1334939699993125,-20.32198187000253,3.1617045499905174,0.349690339999151,40.246761469697304,-66.25126186957769,-4.619279959964829,7.403936129991643,-2.5931212300010786,-13.605154850003887,-29.85532493000937,0.45413055000041,5.56291639000161,0.022729189999998456,0.02148173000001021
19.750000000000124,-50.46305667979948,-71.20715927041871,2.624266709886121,77.54645423980236,-82.39786672062337,-84.9971116514401,-16.95104108997196,-6.805817999989095,2.037912309993568,-20.16186643997919,1.2712477600215122,0.03925038999377542,-31.493293390494863,45.15814218983968,2.2320140598763114,6.659299919999064,-2.986519710001433,-16.040898510005576,-34.252315660009636,0.5646760200000043,6.243313620001041,0.021623389999993126,0.021334809999991246
19.800000000000125,-23.479247319565296,-55.61042051001317,-1.4039780000852087,40.623682029324115,-34.819327860092145,-46.0219708003405,-16.4170876799689,-7.168888449991101,1.6226098699944587,-20.260166880003325,1.8744219100077593,0.03824985999601868,-13.222821740036014,24.84271103964746,-2.773941140101914,3.8745538199934346,-4.549313280001642,-17.324034210003152,-36.236928590001874,0.738875060000899,6.464728450000296,0.02208108999999585,0.02118002999998033
19.850000000000126,-34.95006821005859,-37.56898158019141,3.6086533200139304,65.26155780998836,-74.09033940947731,-38.113412649914196,-13.033979260029556,-7.797527639980525,1.431468820000117,-15.102173810054612,0.3129846300143162,-0.15917267999565504,-9.532815480045157,35.57595140001581,2.620212359995294,3.0880778399985718,-4.097711560007228,-20.0465854000108,-37.833145810008304,1.149672700000912,6.7499204800013235,0.024087429999954432,0.022830219999969995
19.900000000000126,21.937771730253964,-18.476786319914158,3.16412495001538,-13.908569650416263,-9.16283193953943,10.823234230357281,-13.316490330014815,-7.954562799990979,1.3951314399994894,-17.662095600030355,1.7919729800119668,0.5053938500060695,18.471526630171688,-11.845892480224231,2.3447350200140233,2.5462529299956285,-6.083049450010021,-23.99629870000967,-41.16048002000704,1.2824695400001467,7.0979531800009505,0.022024749999975484,0.021093869999987445
19.950000000000127,56.49639400007669,-12.27367824997032,-19.881650750038197,-67.46139973015651,-21.305619360032864,1.0431929400589484,-11.228818519994917,-8.130153729999975,1.306818609999336,-13.468907579997598,2.2791226899968438,0.002638090000126006,18.990790330024186,-35.330528130057736,-17.323376490036633,1.623465029998886,-6.595280149998959,-27.556551210008053,-43.11587984000485,1.4253802700004385,7.4163342200007625,0.024130530000002537,0.02255260000000094
20.000000000000128,5.729824359665414,-11.668490940136142,5.566376050241804,8.583862760349898,-11.660575249602521,13.195777950041688,-12.655743049989063,-7.309637269990023,1.2890083199993292,-15.717978030061133,0.9123006699969172,0.557838830007889,19.902767669945,0.0834093201929571,4.6516679901871045,0.5319939400008211,-7.1555906500115665,-29.61228179000388,-45.03560554000437,1.4875502700000833,7.656347330000957,0.02188868999995453,0.021509369999990813
20.05000000000013,-63.73347175999855,-53.47654813045789,13.663513940115473,107.01936606996381,-17.77878840979221,-36.25156559046504,-13.23659398999631,-6.3057232199981685,1.1283055699981468,-18.861066980044306,1.2230062900063818,0.5412367500051778,-16.272804850327827,55.43785985994588,7.880304770076951,0.007815390002952394,-8.791726310007622,-30.616620090001806,-45.810931600000416,1.571199810000257,7.950138740000775,0.02209686999997353,0.02249412000000274
20.10000000000013,13.493423540206802,-21.58206592007941,0.43905564993144774,-4.692186600314908,-23.384197180103115,-3.3037456101557314,-12.766800139991535,-7.45573202999907,1.3326261899973861,-16.08679338000794,1.302401490003379,0.28592688999947763,10.995713749936765,-5.254348290168063,0.5275217399307839,0.5788653400032348,-8.629271770002088,-30.760583200000248,-45.73984771999905,1.6525481500002437,8.067879380000065,0.022507460000007175,0.021376630000019724
20.15000000000013,6.232650260158836,-19.79839786006231,-2.031165270028456,5.634550239630203,-30.030721839654813,-4.717566659966318,-12.408173290019903,-6.533407489988663,0.9420176400043891,-17.16237508001759,2.4981808600070337,0.15657840999909833,12.78671789001267,1.8852731998554404,-2.5105369700100826,0.6193435999954991,-9.737509730003465,-30.863776119999383,-45.002839399997804,1.826848650000628,8.099771060000105,0.023234989999985273,0.02476083999995499
20.20000000000013,22.217702220002558,-15.167801690048615,-7.5328588399818495,-29.328290969994022,12.702034050066196,16.925678409944545,-15.131318570001614,-6.331207110002038,1.8265035900020974,-18.287426630004916,2.2910621299976826,0.1925447899994792,23.52457718996938,-11.938340760011645,-5.569030899985325,0.9312580600028135,-9.520305259998768,-30.01030703999751,-44.170951139998905,1.8945817499999118,8.017071399999653,0.020345419999999545,0.017740759999985214
20.25000000000013,9.084030919981975,-25.764503789808245,0.5494314399691294,3.4548510099905325,-34.09893955967614,-18.417001799480143,-13.463481870023484,-7.632296589989482,1.3684501100019368,-17.46885674001463,2.239737390001909,0.15473165000048783,8.01948291022698,-1.3279040499823616,0.2989092899755028,1.6611553899955864,-9.129870310000522,-29.416304209999332,-43.60591023999826,1.8478838800002193,7.90391998999979,0.022755849999985096,0.022746789999982014
20.300000000000132,10.83029834002921,-19.192659519890416,-0.973327110029382,1.3850032698401482,-30.366404279832356,10.667600610309176,-15.767771970014604,-6.8178562499959146,1.5509704500019765,-17.80502658000483,2.6136578099995753,0.15646099999998322,16.64791092012928,-3.0010405600251815,-0.8302458900160297,1.7308769500038534,-8.301468299997483,-28.505533159996894,-42.36335217999578,1.868987339999817,7.808131459999887,0.02256951999998905,0.022149549999988378
20.350000000000133,13.940379230117037,-24.672662999984965,-1.3714295600145125,-6.977083970189346,-35.09914106994401,3.139519410006918,-14.479291099996212,-7.835037210003535,1.6851751800002632,-17.706949629997506,3.302403550004714,0.06615710000094857,11.063464620016697,-5.408520220088459,-1.3658757700103792,4.719553870005832,-7.530513289997124,-27.388925559996327,-40.11379383999283,1.689034399999455,7.6336998999991135,0.022924610000003637,0.022460340000001976
20.400000000000134,30.584425640310325,-17.436718359893828,-1.251008550000054,-17.96053200035154,-15.575162520008256,19.437947800151377,-14.889464980001067,-7.100470139995626,1.837304270000766,-16.794206220007762,4.997293320018912,0.17897984000271575,19.2708938901064,-17.731891000234207,-2.308614290011395,5.071854959998547,-6.053795059999457,-24.617570849988596,-37.00293898998923,1.5852866599998499,7.210389439998464,0.023384080000016856,0.022663420000003976
20.450000000000134,-20.249988949979254,-54.06075279018562,-1.5233560600088958,17.68474512979348,-15.991159530214464,-49.118676930622705,-13.998996039976385,-4.065257019988671,1.4268106899973072,-19.272481120004652,3.657169219993379,-0.7227696100026596,-13.982230140220004,18.70737770995045,-0.6551640500280382,5.19792349999846,-6.712509240003787,-19.6315789499842,-30.00630830997163,1.2810614199984514,5.893481829994008,0.022214390000006724,0.02191243000000104
20.500000000000135,-28.137753380331826,-37.285490009947914,-3.1508237600181346,16.940774540518383,70.5543855901734,-8.925253690057875,-19.619070779987247,1.114808350000034,2.0820338199958393,-12.933001359974853,2.2138382599849744,0.054339739997000286,5.876218070009086,19.61049142028193,1.4627128100206126,-0.3060673600118333,-4.50333810998369,-13.534090179983451,-18.73328084997634,0.7812018499985806,3.7455954499961672,0.022445509999995592,0.024119689999983842
20.550000000000136,18.156869730192817,-1.6587944998688515,0.7059763300261619,-21.875994830100275,45.63531045995386,-1.4128470298744813,-13.202587389977058,-5.2751923500365265,2.904842620005639,-16.086965190031318,1.4447497299983385,0.18929358999924084,33.202696810131194,-6.836626440104323,-1.5516687200106982,0.125587290015621,1.3187327400173259,-8.298028579990035,-14.949105599997024,0.04414380999765274,2.9137050699982234,0.021837640000000567,0.02047162999998696
20.600000000000136,-0.24980258003793354,-3.5009714101533893,-1.7358938900238303,27.398695429916252,-23.537772940219472,7.991739479689009,-16.483873410023875,-9.439651739989142,5.539528630002329,-23.468764699982813,-0.8540606600095131,1.1908348199986185,38.33659196986168,15.504080410003482,-0.38284803001452794,8.229024980029239,10.556191450037739,-7.664868230007313,-15.351180490008879,-0.2243998799985583,2.8191103100024737,0.02189536999999701,0.020934830000005143
20.650000000000137,-3.977875899768468,-3.445991260327979,3.6839846798653024,-4.726279090345263,-62.59229495006737,-6.665407870383877,-24.81772826999037,-4.985314309975449,5.716459430007705,-20.972013000014847,-0.34477890996839244,-0.11374599000395699,44.0644125097315,8.440564609881866,7.570884759807317,20.40057878002819,25.40348173003191,-12.174081420012772,-21.142001990018212,0.778164680003052,4.4787528300054635,0.02151571999999793,0.02389677999997564
20.700000000000138,15.350405259979341,-26.081347140103457,-0.23767929000792354,-8.787341600072665,-49.22352885994144,-13.81634189013625,-31.510401040027908,0.891892900028515,4.949891199991003,-29.106583880014792,10.131754570015353,-4.500435050013776,42.90961739995993,-0.4831628600036735,-0.11979342000757498,28.36344109002193,31.369909210009187,-15.795515390011591,-24.458953460002043,1.5711760400021129,5.891264270002447,0.023647159999991854,0.022628380000005853
20.75000000000014,8.020464069956827,-31.423125160013395,3.0057976499654413,6.113907369884547,-43.99762100998783,-27.84426323994154,-33.83855370001558,4.886838090008326,1.6680550899904167,-33.04232917999331,11.808886199984762,-8.660803920009633,45.98895817000658,3.9634966200174735,2.570784939977453,35.562587110013745,38.595114360025846,-20.273472240008225,-25.21629014000329,2.4343106600022457,6.632473700002038,0.02347688999998957,0.022030310000004497
20.80000000000014,10.845381680024252,-33.51727847995396,-1.8464131700084636,-7.381960750179196,-52.56551020997568,-5.587979759925423,-35.94959476000424,3.758038409995408,-1.698116340004705,-32.202034150000536,10.190818619986075,-12.57073332000731,47.763561990061085,2.4742589999766613,0.47222895998756537,39.384567330021305,49.62670481003158,-20.65115000999826,-27.037653070006115,2.951855950000833,7.578944880002977,0.02224679999998693,0.021894470000002424
20.85000000000014,11.24006247999117,-36.03676777994629,-0.5554335899763193,-4.41119993993108,-37.74207572968986,-17.74419943993407,-33.47861720997945,2.531727450000734,-3.4027715899983626,-30.794559449989762,7.344871109990718,-14.447454570001861,45.58349330005317,1.2157695200065333,-0.5026065799942769,49.17321282001997,56.47979637999478,-21.19640965000477,-28.17757814999829,3.4080072700016992,8.346296800000552,0.021873189999994384,0.022054630000005085
20.90000000000014,10.000813290006446,-38.485136020015055,-1.065372799988199,5.225276330007488,12.816236229951834,-12.8397521099472,-30.338091880004324,0.7450097099910665,-4.170488240005084,-27.9650129899985,5.600614199988742,-15.342047160001238,43.355916349989265,2.202526739981008,-0.3744590999958596,50.90540669000747,53.631395370003304,-23.25494373000738,-27.24527133000135,4.0794122900020025,8.491272110001475,0.022035190000001544,0.021761429999998524
20.95000000000014,9.655169230122407,-40.74738676005413,-1.0757848799505085,-2.056018980081761,-45.87926957011072,-10.470447650146017,-32.1508490500018,-2.936796040030265,-6.284855700005681,-29.092831850014967,1.127983679984622,-16.118243930004102,40.350872749966534,-0.4789056301064939,-0.12361983999925535,57.2849153000158,59.936749270021544,-26.607563090009563,-30.70090262001591,4.72942891000133,9.793215020005118,0.021782830000001772,0.021242070000017647
21.000000000000142,8.079369149996122,-41.317189089986684,-0.05151872000014246,4.633557400033965,-5.756448389829252,-18.634894669978358,-30.587850339989945,-5.9073387400018555,-7.976080180005372,-28.231387280010047,-1.6757117400055506,-16.91860989999948,43.565926110038696,-0.6419256699886191,1.8796568500014703,57.5358482100031,65.334182640013,-28.911939290005364,-36.85973482001846,5.0109974500010726,11.390730800003562,0.023556489999991034,0.020631699999999146
21.050000000000143,13.252314180035233,-42.891600669931975,0.8995402500152208,-12.729594670160289,-47.05236671022448,-7.921441989863313,-32.55153960001655,-8.013825370001449,-8.817768540001213,-35.88462502002008,-7.099201780014014,-17.973576600007263,51.665737050083116,-0.07314177002958086,-0.7778066900093616,64.04217505002863,72.82189089002344,-31.63802719000893,-43.73613447001808,5.559373150001788,12.731449710004139,0.020887949999988095,0.02068208000000219
21.100000000000144,19.926835840132902,-43.12007307002512,4.933037579991021,-21.90880149023095,-72.99161372019118,-14.961755860196021,-35.757687939986766,-9.748267349987547,-9.225169240003032,-38.699400600009504,-10.35222331999275,-21.481370880011305,56.81401919993503,-5.583141250085932,-1.9267621700881734,71.1826407700114,78.30820456001032,-33.79338899000352,-48.32931657000961,6.1030952900014634,14.150411380004007,0.019315029999983,0.0200531599999864
21.150000000000144,12.375756209884418,-41.869415809950674,4.716618569949734,-8.781320650025565,-57.69908066033001,4.972459950125443,-35.30302882000997,-12.87053145999684,-10.879147080006074,-38.073699480017034,-15.352994910014235,-25.692090770013056,67.16570417006538,3.344184950111074,2.5354637000232962,77.60676096002751,83.03836464002697,-35.21267443000659,-52.24345194001539,6.784717820002353,15.829653010006089,0.020379050000005224,0.019557889999996594
21.200000000000145,0.7972680901473677,-52.43103528008493,-2.6218103200222744,26.186085219944932,-97.89505164024058,-12.264816420314283,-38.379299390012434,-17.022767860006404,-12.563116840001946,-42.18002283003559,-19.93885776000841,-28.965478030005805,66.83865733995364,16.902708409942363,3.2991615499021183,89.42035017003326,92.4510554100267,-37.99191636000816,-57.958869590013585,7.63657652000219,17.947927830004883,0.02219803000002637,0.01941930000002385
21.250000000000146,37.49512512010326,-44.249597910037195,15.942842900053165,-55.313821620248646,-69.0784537698316,18.221634439976135,-36.98229739000234,-14.321793059971599,-12.310925359993105,-42.96915578000217,-22.259847850010747,-28.93561445999428,79.77131219999228,-15.805958820082468,-7.594064220045559,94.82824915999902,93.60959080998668,-40.951983950007715,-60.20011792999953,8.238816920000849,18.646622809999005,0.019299220000011892,0.018899390000008086
21.300000000000146,12.278349019641086,-47.92291476001793,5.957591869950697,-9.016067529444761,-41.44518196983548,-0.017761709963141747,-36.459872759979376,-15.077474080007356,-10.20792259999246,-42.22536489998192,-22.039348129997986,-26.40061060998947,72.18309047994643,6.240077180262072,-0.5195476698192625,91.23957499997843,85.5469375199704,-42.68012842000092,-59.02872863999396,8.259876909999042,17.840192199996793,0.02078974999999259,0.019474139999989343
21.350000000000147,14.338043029500037,-35.80847815000698,6.124581289866698,-12.239452308644333,-19.45163626977144,15.519380850078552,-36.11189303001174,-13.084975500030689,-7.983038679994023,-41.74601024999164,-16.710778999968703,-22.42962188998839,76.36228167999917,1.618938750444181,0.1183549802269831,83.94190923998066,76.16554985997082,-41.51853142999367,-55.72747471998788,7.7202348899983795,16.41953540999526,0.020977770000023814,0.019699989999997777
21.400000000000148,17.164072740275085,-39.72439744991828,-0.22538374009531714,-2.861874410320233,-24.830160699752458,-2.5914798098464047,-37.856929680005315,-10.693633569998541,-6.518708199995174,-41.40653436998362,-10.482524159979704,-18.986634089990428,69.60379918009373,-0.7782708801549483,-7.455406140244399,77.30391698998247,68.13235820997842,-39.15386368999177,-51.41400844998624,7.098368049997653,14.813983739994946,0.021691580000010292,0.02042836000000886
21.45000000000015,12.351870090034156,-31.774345669928397,2.114070980019867,-10.016031620075301,-5.589298859876896,-0.19795239993685554,-35.74893294998821,-5.343721689975364,-5.571393469996766,-37.816358779983986,-3.495028309977788,-15.285448959989157,68.48433525003823,-2.3656573900377365,-2.0094483200071305,71.64924382998373,63.07248104998641,-35.79387492998842,-46.0918956399816,6.206957919997189,12.89432746999374,0.021117129999996702,0.020792010000006717
21.50000000000015,7.179477850074456,-19.458142790173444,3.592126589921527,-1.8307677000093125,11.476623159951515,14.3018015496617,-33.3140384099727,-1.3583726100089912,-4.581173809990141,-33.30453005998667,2.0394393999986176,-11.418775579986391,71.65822306978342,-3.2006017400067406,1.2425976599087751,66.4262209199877,59.05975136999075,-32.12103784999057,-40.06866930998387,5.17075579999624,10.760903459993646,0.022805469999973592,0.02146267999999325
21.55000000000015,14.381584600088893,-26.027539250137853,-4.5542171099854345,-12.525723710140305,9.651305919951987,-18.72373124033121,-27.784152149967028,-1.9186928400116834,-0.43127916998246185,-27.39789883996712,2.206901259992981,-8.013085949992098,50.25764414978108,-3.3892436500607865,-6.702009030010695,61.56432772998622,55.52288177998746,-28.53971510998832,-35.09382858998548,3.5803347499947504,8.821773629994855,0.02198764999997922,0.022628719999993854
21.60000000000015,5.750134300019248,-24.917407470021708,-1.4543659899940735,7.675073359981173,11.506772950061313,-20.711049059997837,-22.21531383998558,-4.172051950008785,3.425972580014125,-19.427251279985427,2.595749549993202,-4.935399649988418,34.93472530995125,1.4258652999847858,0.9411410699983813,56.287184009977196,47.62929653996625,-24.52186289998826,-29.6198432099817,1.9841087799958534,7.0362443199940135,0.02280651999999636,0.02190433999999746
21.65000000000015,11.253106640009138,-25.557067019958684,-1.4026534100176005,-1.3356561100645985,30.06157417999547,-9.093629949962322,-19.402772359987402,-7.401714200008316,7.045689200007122,-15.403230219983858,-0.7745284900122804,-0.40316301998734727,26.459037559993494,-3.9164269500069024,-1.1371379400163448,45.44409771995889,34.49867785995751,-20.258666569985753,-23.503103899982804,0.898517269997548,4.938159919994007,0.02281292000000332,0.021986500000000405
21.700000000000152,9.798460919897863,-15.881591480015128,-1.3717853899502874,1.7862286802473957,55.00768609998985,-8.669676630159959,-14.173036549978333,-9.942211090009515,7.977166989999525,-9.96361404998921,-4.23966359000417,2.237789190003955,21.951947869931182,-4.526781649925814,-2.0054896599362992,30.605710719953507,19.81361240995649,-15.438210479985223,-18.210157709984955,0.24513731999821076,3.1809393899954554,0.02300917000000087,0.02245761999999797
21.750000000000153,-3.137675200319121,-14.241401250049933,9.399926570193665,15.256610470705255,62.22068093998109,-15.492799330191469,-10.878671849980996,-11.51823932001839,7.211004529999062,-8.66825209999478,-4.11467370998594,1.6713137599966774,15.657648869911768,4.551143880242436,10.643956650251424,17.37515271997135,9.008225089979621,-11.101325979988431,-14.846497429994574,-0.1457663300005729,2.4858708099999927,0.022253579999990922,0.022146059999997546
21.800000000000153,-40.015489669753805,2.2960418099457662,-0.9612283999797422,55.64331550962282,58.45664431988345,8.49072445994718,-11.433462749998574,-9.260732589993903,5.184836389990153,-5.831875600014125,-4.301867309995344,0.6712760600030366,24.36700216995945,37.048357999786596,7.028164719993773,7.898943769974765,4.122282059986592,-7.5166296799895065,-12.960002939993627,-0.11445895999937147,2.363464999998817,0.021425830000004906,0.022315239999998848
21.850000000000154,-19.40542530974379,-23.85927790012187,8.394859910046703,26.55564945959623,26.60568758971247,-9.424634680090055,-13.2273741500058,-4.478252359991389,2.952619489994301,-10.54585430002252,0.11220835001831181,0.5239714900002099,4.529517649910925,17.51395467977425,10.569168540031454,1.5071455199921389,0.8800136899970167,-5.515472189999795,-12.842533110006897,0.22941409000121776,2.6039255600030087,0.022000270000003326,0.02160247999998742
21.900000000000155,15.353303699817353,-19.63678756021069,-1.299606919998854,-21.065411279844525,-78.70014659034007,3.280794779550546,-14.398347619996297,-5.278007559996942,2.0962422199988717,-13.30218385999919,2.5357222399965886,-0.20878903000157037,6.418402099781929,-7.272156139872978,-1.2429222200034526,5.084589990023649,1.98856561000689,-7.138318110008517,-15.880981680009931,0.5789643400008048,3.643307440002294,0.021679260000003524,0.021059270000002968
21.950000000000156,-20.105918900593636,-22.937840880377898,10.76393196014627,33.79311397082116,-128.31219983015956,-17.310090090629018,-10.818954960015738,-3.629253449984011,1.7585129300016367,-15.594251090017359,3.1671879199976143,0.38459814000257925,-3.5984733603437222,18.551563710445382,7.896788790130683,10.6594443900001,2.948034329999352,-9.460528910004372,-19.613006470015137,0.7831830100004219,4.193809690002033,0.0237759500000082,0.0227222000000098
22.000000000000156,-12.145822010668912,-91.19230848974183,8.015857020188236,15.231163731045017,-155.7447210002568,-125.87701616942542,-20.607252429991057,-5.721667090022478,1.9911112900112484,-18.600803380044415,1.314026209996721,0.17717932000754563,-52.44118065980783,10.093514750581415,7.449265050137114,7.338153409991632,1.807162869985437,-10.247455640001085,-24.930970880013433,0.6897074499987506,5.1082366000035275,0.021896470000023965,0.022298870000012082
22.050000000000157,6.156512019786346,-32.22301425954202,3.739411020052658,16.073396200463456,-75.77108504982911,16.430238970668633,-12.869186129971656,-14.252315950021604,2.8276720000046422,-19.818489519940453,0.6836403699953801,0.4712900899994243,2.4415220703178324,6.769475970237135,0.5007085400720435,9.190794830008201,-0.48146522999314434,-10.443442959999736,-25.891113769993343,0.16423532999881169,5.54145441999891,0.023748830000033656,0.02293741000002182
22.100000000000158,16.2187511998233,11.11428279072703,-7.4934179499644635,-9.41288774953826,27.81896459030627,65.15039155129494,-11.729050390127709,-10.437145169983738,2.081352890002515,-8.30582751988113,1.047779250010045,-0.27244622001084423,36.360886050653036,0.3293070602254784,-2.400444349841944,9.547488159980068,1.7932518700151237,-10.707609770003362,-23.975833689998424,0.22341713000162444,5.188797659999469,0.022104079999982266,0.021619739999997244
22.15000000000016,7.9091391000009885,-15.024367030097398,-1.1717990299879464,-8.43733049996652,-12.037481060172773,4.580667889836957,-8.41490261000555,-7.213059329998512,1.3258817599990596,-11.581488850011668,1.8914079400069996,-0.028145750000864226,10.137482449922588,2.3036608399976055,-0.32172608999433217,8.59189120999789,1.0466755499963356,-12.52490427000696,-25.357864740007994,0.594388050000777,5.47113816000143,0.022084940000000587,0.0217691500000077
22.20000000000016,-8.077539909914146,-15.352124120121072,4.752653889950689,9.635608759857432,-15.655480000316373,40.374376699366906,-15.312983889957083,-7.1466333600019345,1.6404214599997182,-14.289563110005076,1.8547666100023925,-0.14429240999887138,20.334878779810573,14.699701589927635,6.239147159939064,7.807372200000721,0.8816882699998365,-14.034059210002503,-28.008194880009043,0.6905605400000536,5.915920760001327,0.022284810000007295,0.024216459999982384
22.25000000000016,36.00513033083753,-4.526531640154793,-9.099389910289666,-27.547743621395632,-27.251138860276484,55.98665375961061,-13.816427320011575,-8.403119219994243,1.324432109996334,-13.469530019964983,1.3042929199885072,0.3868997300014,27.887376209861802,-17.040658510712575,-6.416017790203147,7.246941089998716,0.41925937000044367,-14.352114849999403,-30.242541630003167,0.7815500300000989,6.122433659999957,0.02222680999999728,0.02358995000005062
22.30000000000016,91.69550355062452,-23.839795138500143,-30.468920850335415,-121.40852051098601,-11.289077710059868,30.84811011196972,-10.882356679968753,-8.333439690017997,1.1108789299988604,-15.07548211994391,1.4493424699848199,0.46394687000078966,14.143200831208002,-63.80929109040386,-26.474598060275238,7.50232895000575,-0.16438056999436138,-13.733656739997436,-30.489215799997993,0.7507655899999074,6.162281929999739,0.021251919999967766,0.023080490000010386
22.35000000000016,26.558275590103527,-22.89535693993266,-1.714948100045684,-30.127132330282173,5.702164610159269,23.14655800010319,-8.809512409997296,-7.584419669995974,1.3759398500008004,-15.443597729998693,1.7985079899976857,0.34898473999980917,11.039616050071508,-12.762249020095123,-2.1491843800329264,8.345053500001955,0.45647567000205874,-12.89026416999863,-29.693932989997627,0.7536030099999395,6.117263919999963,0.020689109999985498,0.020697909999981248
22.400000000000162,24.74909388027173,-35.46054938994412,-0.9262394900421089,-39.09192510065076,8.660811320366504,11.50305953028985,-11.25861451000179,-6.121369539994601,1.4500839000008758,-17.360530270045725,3.2312048600019883,0.18130115000442054,4.935068490137477,-13.156517130249567,-0.7333682400286752,8.16228238000098,0.07340768999085645,-12.93697661000226,-29.201882280000852,0.7570483900001291,6.066808780000069,0.02093418999997406,0.019882949999962762
22.450000000000163,2.482665909666987,-24.808790330045344,5.206657719948819,8.61816776041632,-5.875987311176573,19.697128579013274,-14.053821039935507,-7.664016620014371,1.8989591299911766,-16.218053959913252,3.196328019964745,0.006061589998057643,12.268808139680907,6.399010550258089,4.765073639963101,7.191180940007438,-0.7779110999986643,-13.918094430004178,-29.83609158000375,0.7507749999996681,6.257874110001443,0.021707650000035772,0.02084370000006717
22.500000000000163,9.423056239788906,-27.413977090098363,-0.5614610599836458,-5.850652429848781,-39.72864401008452,1.765952449832184,-13.056014530005015,-7.508111239993795,1.6838146399981955,-16.5947743699971,4.26630712999603,-0.2199656200019677,6.322822959896156,1.4605513101529728,-0.42670568997372027,6.634944809998339,-3.066188930007697,-16.21865230000919,-32.425128250011724,0.9471574300010347,6.966246880002403,0.022711829999992834,0.02249936999999938
22.550000000000164,12.526700319991074,-33.2206034499501,-1.3172445800063477,-4.624611970011208,-50.26988623995332,6.607422850195688,-14.441240290008176,-6.713481129997835,1.599461880000691,-18.967530690004992,7.683384590005233,-0.43690175999879916,4.124468800062985,0.838378280014028,-0.8261034400001922,6.011246519995718,-5.854588140005701,-18.4606176100041,-35.63486477000646,1.248153960000712,7.620461860001501,0.023000170000003643,0.022585930000003286
22.600000000000165,-11.49075529893322,-12.468564419952534,5.159901419947781,38.90392944864828,8.350651209755114,96.79895983978541,-18.487892209969914,-5.686967859991294,2.075051920003829,-22.394976380045957,7.603974940041248,0.219972100009005,35.13509731006075,22.495440159158672,5.514386719873055,2.767210059983377,-7.379443810011205,-18.47135746999576,-35.8284454999952,1.4591302500006604,7.55133747999807,0.024235690000035816,0.02333599999999398
22.650000000000166,14.129712839732129,-27.776014770109683,0.5489145999623739,-12.843377739702706,48.149782429955465,8.693835319561673,-16.608873630014056,-3.205932729980189,1.2378253100080354,-20.989894089989612,6.537977290002495,-0.4421521399961667,19.11307200986457,-2.7125551297977832,-0.42886560001017227,-1.2814893200146962,-7.963925939998148,-16.673892319996025,-32.05760520998007,1.4848807499994487,6.6174717499963895,0.023012980000003562,0.021820140000012637
22.700000000000166,-7.668688840171366,-13.648423949956893,-0.2778870299941069,5.973048760225895,50.08981465991554,-11.77273713004589,-18.296231220004533,-3.770306600002527,2.172003290005082,-14.869629659996372,2.165136829978724,0.00948006000479559,25.010311110019494,10.788862780129298,1.6557335200205545,-2.8598305899992154,-3.845333629981913,-17.824756870006308,-27.79646865999881,1.3068621099991624,5.816035249998793,0.022103480000000984,0.021638370000004323
22.750000000000167,8.984230899925358,-9.925123460063096,0.899046379975072,-20.643085379848287,2.494906559949622,8.240266040055845,-20.066741120016534,-6.458230470012059,3.4664546400089793,-23.26899883003156,0.12530885000669353,0.7396326499982716,35.6250200199853,1.3020882901011201,-0.2409848200090672,-1.5584868899921425,-0.8424320399941508,-15.635042789981998,-27.500347049987766,0.6855051499971702,5.344745309997149,0.022419019999998353,0.02143945000000026
22.800000000000168,8.70784551024749,-18.43421165995059,2.9147371198481316,8.989059539613674,4.183250569906541,9.487542559867515,-23.872867060000534,-9.25732953999607,5.82176819001482,-23.236061149957727,2.6742680300063215,0.11731916999159475,34.00889568001766,5.333808139852973,3.6826427898210694,4.849568150040464,5.083734950042581,-12.379179849998827,-23.416190269994637,0.49184884000182594,4.869498840001258,0.021978809999996664,0.021437240000014353
22.85000000000017,8.716608659788381,-9.045410060021153,6.509737009889966,13.246738590109999,-48.12175711009088,-20.305629359940493,-25.620452720019976,-5.367130579954867,5.749154370007999,-19.03034522999948,5.744000690020904,-2.095408960010865,37.16634815998919,1.0800004401998535,7.432533679943717,18.595812190043205,18.905543220037952,-12.841628690000352,-23.23815517999559,1.31560275000213,5.567008620001488,0.024111959999982696,0.02288633000000496
22.90000000000017,12.291111099937934,-21.616489190046195,-0.8375225399879744,-6.824819139892681,-50.49643019990295,-17.74429255000983,-30.59263781001213,-0.15801003998688595,6.585591099998718,-22.12638133000807,10.395180420012952,-6.078541950017016,36.60899320999244,1.8678775200493032,-0.16955861997858657,29.85205378003721,29.938939030036764,-13.357943390009893,-20.5196995799926,1.7405921100018376,5.5676961500001125,0.023387959999997945,0.022607880000000656
22.95000000000017,-0.5711558801384595,-38.76573769005925,2.103825200015703,19.708736140287485,-57.06621395027191,-34.47097518999502,-33.669426100022065,2.62184389999491,3.685074519983585,-23.599536880006557,12.402467800007852,-11.151585140018378,27.55070296995509,10.390171430100844,5.485525040070642,42.75596351004315,40.8176212000379,-19.229896340023352,-20.58616485000606,2.6955044700038258,6.134205370003658,0.023125800000011583,0.02168456999999336
23.00000000000017,14.537080200034715,-43.137068740130054,-3.99873975995361,1.0657460100567824,-65.43585719011399,-17.063045510218288,-35.94870819999573,1.6944925299855345,2.2994472099924326,-26.537941250020246,11.550422129997603,-16.08400135001238,32.4828537899008,3.7765413599764934,-2.7834265099585713,54.76252521003576,51.69271585003946,-23.648290220006373,-22.886643970008684,3.53651804000204,7.288244480003714,0.022301290000011856,0.021463069999989447
23.05000000000017,12.364235009977136,-41.0803625799557,1.7680272500295513,-1.7849973299817963,-41.978206459766895,-13.38610633995524,-33.09645870997393,1.548118520007601,-0.2289192600116775,-26.981945309983594,8.57714993999062,-17.813830050002633,36.19023074001877,3.4875746200039135,2.6399145600243945,60.59485298999192,58.89392504000969,-24.611537130001597,-24.517564590001534,3.9706204300008325,7.995314260001215,0.02259447000000553,0.02158550999999839
23.100000000000172,29.55958669961135,-41.38666141000324,-0.3962544000974255,-47.97045454927233,28.999929559975286,-2.987801120036865,-27.337295370000973,2.1830133199831723,-2.2639881300040035,-22.30561590001803,4.909542499980168,-17.816723219998927,33.15772457001627,-11.429511709635909,-6.352643949954544,54.507920969993904,60.90951764001374,-25.13445448000268,-24.87522825000344,4.044464110000017,8.305386940001458,0.020066840000023994,0.018534190000013145
23.150000000000173,19.635032010033026,-43.60195824993152,1.494295920034169,-20.22109817005319,-29.563459259961057,0.12159771007107256,-30.3104910000158,-2.023250000007569,-2.5754707000058654,-28.727128000016915,-0.07515654001613464,-18.563550570002857,36.8947660201048,-1.0020113500484438,-1.798580819994488,59.316926180032084,65.73159359001862,-27.174105820009665,-27.183263270010805,4.283227160001863,8.987385160002752,0.02196230000001404,0.020597420000002944
23.200000000000173,7.700722549898497,-38.615323059973036,-3.0551564300133043,-3.6190868498463695,-40.881306809888045,-3.0269928499510135,-31.631259070005694,-4.391866600012462,-4.369868700004758,-27.32852714998465,-3.509952660024534,-18.755917100001152,42.690362910040136,6.40445772006715,-2.316831329988443,65.34475707001235,70.49229421001081,-29.734717700007195,-29.9612354900079,4.89488807000192,9.648975660002048,0.022219600000008673,0.020294020000000478
23.250000000000174,18.192633239926057,-42.68990092001453,2.5513940499569836,-7.574235179806145,-31.030980960045838,-9.86518059995863,-30.96520539000355,-7.045075990018168,-4.585017070003491,-26.7444564100036,-6.242593200006549,-20.704386620010094,40.79325572000243,-2.62702361992559,-1.8390416499924085,70.35668880002216,71.9856665100029,-31.50204711000379,-32.1099085000068,5.331064190001365,10.497777280003847,0.021134010000006982,0.02038554999999784
23.300000000000175,17.660014429948014,-37.837015900037855,1.5168363899653097,-0.9430019098834963,-16.500938610033735,3.661173139914208,-29.949785419982963,-9.342500190008108,-5.284437050004855,-25.32210887000136,-8.484692040004845,-22.701833880001136,46.27608508994317,-1.4528633999364726,-1.4450121999939338,71.83597304998464,72.2148777900021,-30.994522719992762,-32.99186881999951,5.597998200000804,11.316465290001041,0.02123784000000738,0.019727459999989726
23.350000000000176,10.123798550064812,-55.20133975966998,0.4166318800181348,-3.672127180054649,-50.504513259732356,-34.75585116907865,-30.000578690010528,-11.707110429984745,-7.492265100012031,-27.009729080024208,-13.620783329962176,-23.492300430010857,29.321048460427512,3.9523918699551173,-0.28203430998894485,69.28461651000681,75.99916451002457,-29.143328969996883,-33.459063590007396,6.044582930002292,11.60859388000273,0.021492250000006513,0.019171759999995014
23.400000000000176,13.201223169773733,-40.06839205002549,3.895570500005447,5.361247360471722,-70.04670030032405,19.142291729919798,-33.99640005002883,-13.448971300030921,-9.5554881000031,-32.40898848001295,-15.616370080023591,-27.27135949001432,60.425941570003175,3.3732777201737214,2.407279150143114,79.34858716005516,87.16881512004068,-29.521566150005754,-36.878648490013184,6.687370770002304,12.972343520005406,0.021015630000004344,0.01929397000000966
23.450000000000177,11.966682469749454,-45.40715103996069,7.351005349931025,4.432155240669224,-91.51876806990919,5.347296050125506,-35.19726843001751,-14.471860850014123,-10.088194320004382,-34.81708304000788,-20.89210020999286,-29.48885784000224,62.20883484007371,6.241092430215806,2.370686690075969,91.6881460200321,94.81512847001072,-32.091595080010514,-39.66114436000668,7.44339246000278,13.919107240001274,0.020619230000011188,0.01941749999999697
23.500000000000178,19.08734702996153,-40.20704533000524,6.263911359990777,-0.28584882990741645,-59.220744289762315,13.926418929970378,-32.951989399986324,-15.63399841997935,-9.264767099990914,-35.19482903999525,-21.055350689994214,-28.74113679999445,67.15734641998345,2.188057630054175,-1.14405970999961,94.09840351999165,93.26560180997856,-34.497123330005216,-40.898368580002256,7.837855599999552,14.109433270000606,0.020738819999994957,0.0188555200000021
23.55000000000018,17.141001579947705,-39.5729725100518,11.379893349956733,-11.791412569918826,-24.23910386999183,12.735602899842474,-32.63194533999203,-12.58098241999784,-7.184693229990652,-33.810928240007115,-18.482031989987192,-26.22256594998766,64.38815733992783,-0.556790569945016,3.09485820000174,89.39929150997799,84.88722705996881,-34.85720076999759,-40.90970653999746,7.3911636099979905,13.988691499997671,0.021046400000003816,0.019683579999999645
23.60000000000018,18.837836070016067,-44.77593208008843,6.021125330075692,-14.723972110105112,-23.11961471004645,-3.4188820301502147,-31.193452270011797,-10.48289100999156,-4.779376809995684,-35.396690999994085,-16.90736264000295,-22.402419019987683,53.873251609907754,1.6015128499423052,-3.318581479966599,82.82566491997996,76.77456772997414,-32.96014191998898,-39.57473020999414,6.857936919998165,13.006695489996618,0.021205210000004734,0.019587690000005074
23.65000000000018,11.327965739968597,-41.676006100005026,5.609780720007519,-1.034556339844618,-21.363105149893723,3.963612229965091,-32.49304878999891,-7.426394559980421,-3.700617829995771,-35.7311735299982,-11.915046759976185,-20.379628499996517,55.651228319991105,5.545967280024069,-0.2771528799860736,77.79936669998392,70.19572404997987,-29.348449929985563,-37.67314346998989,6.230179669997012,12.274983429997159,0.02158919000000378,0.02021267000000145
23.70000000000018,31.49454461992822,-31.74049569000863,12.1223119099526,-29.11085460982174,-20.899180489953384,12.475521359915813,-31.592648229980817,-3.646126099990874,-3.9145772799966734,-34.3037604699849,-3.561168679981231,-19.184739669993846,59.43839392994593,-15.791227269918028,-0.8558233700103819,74.19431021998909,65.3043673099854,-25.081424149984166,-33.44909310998181,5.393108319996933,10.888039149993276,0.022112759999998094,0.020397100000004387
23.75000000000018,1.4577039600951336,-26.23877410988112,-0.015422969989635327,-2.588935540220694,-10.926942230033355,-1.4201411698463016,-26.641222889991003,0.2590885000178921,-3.8943429999979835,-29.264755499982165,0.7143731200310743,-17.054352289991716,51.94336798006829,10.875857419906755,0.4269658199913409,71.15207310998994,63.16438926999582,-21.51191603999101,-29.47536273999008,4.540860209996607,9.290851359995383,0.022325980000004773,0.02111051000000458
23.800000000000182,11.548114250101078,-30.511580979796893,0.9161736301200472,-1.950615180173636,12.484323140009817,-8.638384329643422,-23.525443060013927,-0.9787569699863048,-1.4913366999888746,-24.347079919995654,3.740405440016005,-13.226161879981355,39.8332707501891,1.2242563498465469,-0.21692308994168402,67.31555925998809,59.220618219973176,-20.15685415999781,-26.98401219998999,3.5585695799964823,7.89277638999397,0.022747700000026135,0.021304000000007522
23.850000000000183,10.164767139660423,-32.8790210598641,2.039985489903662,6.652148220559156,4.657789080000015,-19.960641459930006,-20.941240879997185,-2.199547870011132,2.357233300015434,-21.525432089984832,4.211438379989389,-8.7915072999879,28.937158590093233,1.948905780314672,0.5616958300088126,62.8035053499779,51.36911206997734,-19.805127879997546,-24.055333319988748,2.641249959996311,6.283249969994721,0.022450650000008225,0.022087210000021937
23.900000000000183,12.758074210037579,-27.790407319920163,-1.6542507500110128,-1.205924000115281,12.488191209947574,-9.839514709834207,-18.319989979984715,-5.557554210012251,5.886364450010323,-15.814286649993047,2.969075619994508,-4.659842249982214,23.339329930028892,-0.3232925000258256,-1.803959010013779,52.5646973999508,41.82563854994661,-18.554030039992785,-20.74402537998535,1.6023084099966136,4.926037889994996,0.022982580000002143,0.021508499999998647
23.950000000000184,2.748400050246522,-26.247733079924394,-0.5430940000181413,3.8166697995934937,53.810798180246046,-11.55557263007276,-15.043417969982361,-7.905294940011189,7.356024980002063,-11.701323549968789,-0.24231571000849633,-1.3873033199958293,16.63836494002087,4.214799079778908,0.20990038993413562,37.939093779949914,24.24220597993928,-15.898209469987858,-16.61374687998706,0.8911760499976757,3.6169352699958197,0.02326228999999846,0.02233501000000717
