Time,pelvis_tilt,pelvis_list,pelvis_rotation,pelvis_tx,pelvis_ty,pelvis_tz,hip_flexion_r,hip_adduction_r,hip_rotation_r,knee_angle_r,ankle_angle_r,subtalar_angle_r,mtp_angle_r,hip_flexion_l,hip_adduction_l,hip_rotation_l,knee_angle_l,ankle_angle_l,subtalar_angle_l,mtp_angle_l,lumbar_extension,lumbar_bending,lumbar_rotation
11.0,1.22615319,0.35279798,85.14238416,0.52240664,0.88088919,0.24572718,15.97687988,-11.76095217,-17.25546288,-30.24386444,16.75930523,-2.4e-07,0.0,11.26963208,-16.23275041,-20.53768915,-27.14771951,17.73100767,-1.99e-06,0.0,-11.10816851,1.65538522,-0.24554565
11.05,1.13273452,0.80129086,85.38032253,0.5217657500000001,0.8812212600000001,0.24227361000000003,15.32871972,-12.22827908,-17.89230289,-30.39287556,16.231415000000002,-1.8000000000000002e-07,0.0,10.54779497,-16.00610896,-20.583467040000002,-27.026414950000003,17.98647478,-1.81e-06,0.0,-11.07695579,1.74055253,-0.22982034
11.100000000000001,1.1400598799999992,1.020163920000004,85.66735455999999,0.5215796599999999,0.8817137099999999,0.23898829999999988,14.619215329999975,-12.35125484,-18.41288396000001,-30.124708719999983,16.126247220000003,3.000000000000887e-08,0.0,10.155526929999992,-15.946183419999997,-20.452866139999998,-26.969005009999997,18.02303998,-1.9099999999999893e-06,0.0,-10.718327679999982,1.9654653700000067,-0.12466944999999506
11.150000000000002,1.0817091499999958,1.1556064700000082,85.96388295,0.5215646899999999,0.8821466699999998,0.2365618899999999,14.047626349999973,-12.464648480000003,-18.825448040000015,-29.85611456999999,16.188287519999996,7.000000000000137e-08,0.0,9.928604739999987,-15.868552899999992,-20.43254210999999,-26.91685674999999,17.909303939999987,-1.9200000000000075e-06,0.0,-10.31552924999999,2.118145230000004,0.0419515500000083
11.200000000000003,0.9286582899999913,1.273216250000004,86.43063019000006,0.5212373,0.8823213399999998,0.23527613999999997,13.665365059999981,-12.734870600000022,-19.276916830000047,-29.820015180000006,16.35442389000001,2.000000000000056e-07,0.0,9.868633350000014,-15.674630099999987,-20.35076122999998,-26.865864590000005,17.847558279999994,-1.820000000000006e-06,0.0,-10.049568859999983,2.266842090000017,0.10636145999999448
11.250000000000004,0.7655672999999785,1.284686859999999,87.04383391000003,0.5208296299999999,0.8823592599999999,0.23510928,13.512791679999994,-13.038926390000029,-19.792468160000027,-29.919039400000003,16.4531105,1.600000000000039e-07,0.0,10.063477740000012,-15.506879769999973,-20.30536973,-26.817822269999983,17.613451689999977,-1.6799999999999979e-06,0.0,-9.790344859999978,2.3967559899999946,-0.05574325000002143
11.300000000000004,0.43717042999997674,1.2932236500000076,87.65841010000004,0.52041187,0.8825563900000001,0.23589461000000014,13.47824237999999,-13.510369040000034,-20.192359410000037,-30.075030630000015,16.52441568,6.999999999999707e-08,0.0,10.266823810000012,-15.17337375999998,-20.58413774000003,-26.651434889999997,17.28080534999998,-1.5399999999999967e-06,0.0,-9.637195190000007,2.260347119999989,-0.3505584800000044
11.350000000000005,-0.06474460000004809,1.368962590000003,88.26369520000006,0.5199079799999999,0.8831386200000001,0.23760287000000024,13.425900349999996,-14.166864990000061,-20.562766180000043,-30.18111126999999,16.51295951999999,9.99999999998303e-09,0.0,10.317252380000001,-14.648222719999954,-21.218528460000087,-26.239706279999943,16.843493639999927,-1.4699999999999893e-06,0.0,-9.726215300000018,1.8355409299999519,-0.5407955300000067
11.400000000000006,-0.45198054000002413,1.3976483899999923,88.83887570000007,0.5192327699999999,0.8837838,0.24028556000000034,13.38493236,-14.668487380000037,-20.959282010000052,-30.10431598999998,16.40683159999998,-9.000000000001382e-08,0.0,10.425792950000039,-14.240159169999972,-21.777470030000007,-25.771889129999973,16.268977189999948,-1.159999999999981e-06,0.0,-9.92508587000002,1.5279321499999887,-0.6117663500000039
11.450000000000006,-0.586726909999996,1.3521700700000012,89.5369886500001,0.5179697099999998,0.88386247,0.24388727000000057,13.423284260000008,-14.95784020000002,-21.49488685000007,-30.038888450000012,16.29369657999998,-2.2999999999999033e-07,0.0,10.860253630000072,-13.937368409999975,-21.209442059999848,-25.55641324,16.109186370000003,-1.2000000000000298e-06,0.0,-10.197433110000055,1.5088935100000267,-0.7685285900000253
11.500000000000007,-0.37725716999997194,1.4203006000000054,90.18669701000005,0.5162663399999997,0.8833163899999997,0.2476177600000005,13.40630353000003,-14.922194309999998,-22.002558710000027,-30.094694140000033,16.21722580999999,-3.0999999999999253e-07,0.0,11.336482920000073,-13.902818069999999,-19.8053081199998,-25.680624010000045,16.285971140000033,-1.340000000000021e-06,0.0,-10.61114726000005,1.8838221000000437,-0.867074209999983
11.550000000000008,-0.21601806999998824,1.4996238300000249,90.36513423999999,0.5147764099999999,0.8826108900000001,0.25118542000000044,13.634116500000017,-14.89782375,-22.024301029999975,-30.30833062000001,16.106726849999962,-4.5000000000000654e-07,0.0,11.758913810000028,-13.907040189999993,-18.79095435999992,-26.057588390000042,16.47512427000001,-1.7300000000000448e-06,0.0,-10.956943990000058,2.0984864400000034,-0.5671640999999739
11.600000000000009,-0.12225899999999658,1.5723456300000018,90.12865194999992,0.5136823899999997,0.88248915,0.2542966500000005,13.852809660000043,-14.830563089999995,-21.79243424999995,-30.265765579999968,15.839814659999938,-3.899999999999409e-07,0.0,11.99940907000003,-13.957890809999993,-18.64734986000002,-26.403960000000037,16.647230950000047,-1.8900000000000442e-06,0.0,-11.251645030000038,2.1876109800000036,0.14665759000013778
11.65000000000001,-0.0819080999999853,1.7052728700000157,89.70955132999993,0.5124947199999996,0.8825934199999999,0.2569599700000004,13.967279740000013,-14.799802919999985,-21.500620489999957,-30.102131989999954,15.51060106999994,-2.5999999999997125e-07,0.0,12.07376934000003,-13.986017470000014,-18.893987640000024,-26.714172900000065,16.804964319999993,-1.9799999999999933e-06,0.0,-11.579596350000044,2.1770358900000115,0.5266838200000681
11.70000000000001,0.0035068600000288525,1.830294120000047,89.3231270699999,0.5116623199999999,0.88257221,0.25951921000000056,14.085204690000023,-14.70031558999996,-21.219040789999916,-29.976299689999998,15.277446579999966,-1.8999999999996933e-07,0.0,12.253859940000023,-14.102239000000052,-19.014186310000042,-27.142699860000114,16.77442733000001,-2.1600000000000373e-06,0.0,-11.937233580000111,2.2302753700000135,0.8125518100000745
11.75000000000001,0.09057486000002743,2.085589260000049,88.8458584699999,0.5116120200000001,0.88259596,0.2624371800000007,14.219811550000053,-14.562865549999962,-20.783551649999907,-30.034256290000034,15.070012889999957,-1.1000000000003055e-07,0.0,12.36038567000005,-14.301058790000063,-19.105771340000004,-27.67807429000014,16.695314929999984,-2.3700000000000917e-06,0.0,-12.580441020000166,2.1626150099999855,1.0061224400000308
11.800000000000011,0.24395877000004662,2.323447300000014,88.38981659999992,0.5120937800000003,0.8822275699999997,0.26646232000000103,14.632656960000173,-14.382960019999949,-20.30575425999988,-30.44783287000015,14.933573899999974,-5.000000000003682e-08,0.0,12.760109630000182,-14.67011702000011,-19.05557347999995,-28.56620710000026,16.70003480000002,-2.6400000000000967e-06,0.0,-13.537198140000196,2.0860240499999883,1.0901291200000087
11.850000000000012,0.4508694500000502,2.418712680000019,88.00535247999991,0.5129732900000001,0.8807295299999992,0.2723188300000017,15.682569190000347,-14.233004779999987,-19.747007839999853,-31.542810770000386,14.889643010000018,-1.8000000000001996e-07,0.0,13.907398480000392,-15.229994080000152,-18.64301091999983,-30.227768970000543,16.914040480000054,-3.0300000000001552e-06,0.0,-14.71774359000035,2.038562620000002,1.083682029999993
11.900000000000013,0.7557559400000821,2.4225713299999834,87.76040353999991,0.5137201100000001,0.8770105799999985,0.2806940800000024,17.666211150000663,-14.192107940000009,-19.06048048999977,-33.879006870000794,15.09325582000009,-3.6000000000006257e-07,0.0,16.20373162000075,-16.03937495000023,-17.57513702999965,-33.266371810000976,17.199594610000105,-3.7300000000003264e-06,0.0,-16.31394222000045,2.141060380000031,1.077504820000017
11.950000000000014,1.096207420000071,2.3330721599999853,87.50319875999995,0.5145939800000001,0.8689961699999967,0.29198160000000356,21.109855200001185,-14.387896680000136,-17.95227513999961,-38.186230630001546,15.741999320000295,-6.00000000000156e-07,0.0,19.93262306000124,-17.1201224000003,-15.88726497999943,-38.12016697000165,17.961564200000367,-4.620000000000248e-06,0.0,-18.39836933000068,2.2671987899999992,1.1940987700000223
12.000000000000014,1.2105185200000048,2.4383165400000726,87.32581359999998,0.5148756299999999,0.8538080399999942,0.30525550000000384,25.888689940001505,-15.267092980000351,-16.45038300999955,-44.84468634000222,17.25877256000058,-7.799999999999769e-07,0.0,24.788519970001527,-18.156368850000288,-13.772033889999355,-44.88116091000219,19.58855993000057,-5.100000000000027e-06,0.0,-21.148691520000863,2.181389459999964,1.1214777399999205
12.050000000000015,1.062081009999904,2.908025420000179,87.4967108600001,0.5143594299999996,0.8292813699999917,0.3183504900000034,31.541814690001708,-16.959928530000614,-14.786967659999501,-53.58778195000272,19.812781670000835,-4.4999999999985667e-07,0.0,30.49325217000171,-19.010424020000183,-11.375772039999305,-53.39122045000262,22.11551589000084,-4.979999999999889e-06,0.0,-24.329887190000917,1.9295129499998946,0.5397438399997395
12.100000000000016,0.7371262599999482,3.586613450000222,87.93250457000016,0.5131813499999995,0.7959116199999884,0.32931875000000305,37.662677680001956,-19.2454518300007,-13.028905889999459,-63.44292335000318,23.015313380001093,3.7000000000034443e-07,0.0,36.71159090000204,-19.68462003000027,-8.950125529999196,-62.98890038000314,25.31621941000108,-4.209999999999656e-06,0.0,-27.343262030000886,1.6495973899999803,-0.39211645000024964
12.150000000000016,0.8027033000000796,4.41410421000036,88.33953009000008,0.5125255899999999,0.7571800299999871,0.3368593500000017,43.531416570001745,-21.1195130700005,-11.276351709999396,-73.24827201000309,26.42449891000108,1.2500000000002642e-06,0.0,42.95609215000189,-20.744011600000405,-6.321607729999147,-72.78787519000312,28.75010258000109,-2.7999999999995925e-06,0.0,-29.941654890000823,1.7764320000000746,-0.8269039100000144
12.200000000000017,1.1641519500001238,5.791313870000545,88.47524436999996,0.5123846200000001,0.7155170899999849,0.3406182800000007,48.716480690001795,-22.36992773000034,-9.146249829999114,-82.83534132000335,29.802826150001202,1.6800000000001567e-06,0.0,48.58902302000189,-22.146779890000513,-3.5995387899990425,-82.58237659000342,32.106723460001184,-1.6499999999996126e-06,0.0,-32.48398310000088,2.0114665800000266,-0.48677496999975595
12.250000000000018,1.4007346000000584,7.394345980000586,88.14945353999985,0.5125521999999999,0.6723505799999847,0.34137796999999975,53.64505779000169,-23.168182840000277,-6.3757439699989815,-91.98353667000313,33.11761106000113,2.0800000000002062e-06,0.0,53.46201186000161,-23.4593319800004,-0.9782070099990714,-91.85403247000316,35.488505840001196,-7.099999999996459e-07,0.0,-34.87287698000081,1.8719517299999249,0.3718303800002991
12.300000000000018,1.3642162299999103,9.175224840000682,87.8342081399999,0.5117822999999996,0.6296697899999852,0.33981141999999914,58.17167838000156,-24.14428080000038,-3.328311199998813,-100.49117443000293,36.096335650000995,2.9700000000003604e-06,0.0,57.52881682000127,-24.217329710000165,1.5285415100008297,-100.37803694000289,38.790129050001134,9.000000000041172e-08,0.0,-37.18475352000083,1.5418877699998195,1.0191594400001607
12.35000000000002,1.0097691699998492,11.169727840000782,87.47140168999982,0.5107965099999996,0.5888578899999845,0.33687455999999866,62.35926754000157,-25.002374940000227,0.23498905000144416,-108.29591276000286,38.74257942000092,3.9100000000003065e-06,0.0,60.6249971900011,-24.637376630000166,3.6714404700007917,-108.06602441000284,41.86583773000109,1.0000000000002687e-06,0.0,-39.52466065000089,0.8831989099997096,1.3911987600001408
12.40000000000002,0.677178089999887,13.077329280000695,87.08411076999985,0.5102623799999998,0.551209249999986,0.3333487899999986,66.17612644000138,-25.434562600000113,3.777610630001307,-115.18712538000244,40.96051768000077,4.690000000000249e-06,0.0,63.295451160000965,-25.02734486000009,5.7151047800008135,-114.90232125000244,44.418039130000864,1.6100000000002018e-06,0.0,-41.74097896000083,0.18225282999975564,1.6220362000000466
12.45000000000002,0.5183960000000106,14.828687860000759,86.86736286999992,0.5101657900000001,0.5189484999999878,0.33021126999999884,69.28978536000106,-25.626071430000017,6.757804360001067,-120.91799025000216,42.64672120000059,5.220000000000139e-06,0.0,65.58806033000084,-25.216574980000093,7.872036300000959,-120.60013966000217,46.3721263000007,2.2300000000002705e-06,0.0,-43.947995280001,-0.2976524900001345,1.727268160000065
12.500000000000021,0.5779910900000275,16.4692393500006,86.77334121000001,0.5105411300000002,0.4937104299999907,0.32812563999999933,71.4063335900008,-25.689891120000055,8.89988927000076,-125.3261954600016,43.806642520000345,5.5400000000000935e-06,0.0,67.31560862000067,-25.31115348,9.995636830000828,-124.97887892000156,47.70723894000042,2.7000000000001834e-06,0.0,-46.22145363000091,-0.5323203800000715,1.9202543500001164
12.550000000000022,0.7487773700000641,17.613367010000392,86.68803454999994,0.5112444500000004,0.47611209999999443,0.3272813599999999,72.89610511000048,-25.69447612999998,10.183039200000387,-128.32743558000098,44.50726790000018,5.730000000000103e-06,0.0,68.6390822700004,-25.293395550000003,11.803784600000618,-127.91682410000092,48.397507680000146,2.8699999999999518e-06,0.0,-48.09949641000073,-0.5940808300000686,2.3088071900000746
12.600000000000023,0.9867537600000783,18.22017187000015,86.43619372999987,0.5124964700000005,0.46772821999999825,0.32734775,73.54381828000008,-25.545811289999932,10.522282209999984,-129.74866065000026,44.81837545000003,5.8800000000000386e-06,0.0,69.24997199000006,-25.372240670000032,12.94961841000029,-129.26749623000023,48.607318539999994,2.7499999999998246e-06,0.0,-49.403427250000405,-0.6559306700000743,2.772715880000094
12.650000000000023,1.180012240000028,18.345838859999915,86.21620861999995,0.5140019300000006,0.46949437000000316,0.3274658399999999,73.06941062999952,-25.463211630000007,9.962599669999586,-129.55681842999948,44.857200559999946,5.769999999999963e-06,0.0,68.86173495999958,-25.457649620000005,13.185377719999824,-128.97437976999947,48.50103878999986,2.4899999999997208e-06,0.0,-49.84897407999993,-0.6621993399999926,3.1200419600000897
12.700000000000024,1.0846208799998778,17.814660029999562,86.20791630000004,0.5156026900000008,0.481987020000009,0.3273396799999999,71.64506667999905,-25.518129910000027,8.740086599999232,-127.6615383099986,44.5908451699998,5.289999999999747e-06,0.0,67.49544240999906,-25.430092029999972,12.173362069999177,-126.88989064999849,47.99124948999964,1.7399999999996414e-06,0.0,-49.140728529999365,-0.715442530000065,3.1696040599999784
12.750000000000025,0.7402260999997837,16.762813659999388,86.3641714100001,0.5172357400000007,0.5056599100000144,0.3269455499999996,69.10640090999843,-25.610029050000062,6.891556879998934,-123.92016935999764,43.96774657999958,4.629999999999699e-06,0.0,64.97368452999841,-25.307967769999912,9.969333839998637,-122.88992960999752,47.0279237999994,8.899999999995728e-07,0.0,-47.505451309999,-0.8682763500000861,3.0445923599999154
12.800000000000026,0.29330326999978,15.429509909999283,86.60576520000015,0.5186273800000005,0.5399775500000197,0.3257709199999991,65.27241585999778,-25.705714270000026,4.439765219998632,-118.29357911999676,42.839736719999316,3.999999999999676e-06,0.0,61.16807826999782,-25.0331944999998,6.885692019998329,-116.99277727999662,45.56289157999913,7.999999999937944e-08,0.0,-45.19478987999868,-1.0043856100000488,2.8086988899998455
12.850000000000026,-0.12699166000016743,13.966199259999254,86.87952664000011,0.5196592000000005,0.5837654400000257,0.32299199999999806,60.14210075999685,-25.66930701999985,1.4211520799982231,-110.83864653999554,41.11641094999887,3.269999999999633e-06,0.0,56.163239609996985,-24.48025941999965,3.3193998299980554,-109.2845233199954,43.4911880299987,-9.100000000006536e-07,0.0,-42.273780939998375,-1.0598258200000024,2.4410356799998367
12.900000000000027,-0.3450049400000943,12.497247929999148,87.09580493000014,0.5206810900000004,0.6356730300000292,0.3187271799999974,53.7496531799964,-25.14871068999963,-2.182948520002032,-101.50498772999453,38.50186693999835,2.519999999999464e-06,0.0,50.10078938999663,-23.659955319999433,-0.3091595400019107,-99.72538839999443,40.661024629998224,-2.030000000000501e-06,0.0,-39.01972758999813,-0.9671542799999256,2.171711519999864
12.950000000000028,-0.4799889700000121,10.67890787999882,87.43013118000023,0.5214859600000004,0.6921301700000325,0.31344590999999683,46.90072445999609,-24.28127985999938,-6.16744484000239,-90.4571137099933,34.981279869997735,1.7399999999995018e-06,0.0,43.765239759996476,-22.44101788999927,-3.846456800001942,-88.48101080999321,36.7984427399975,-3.1900000000006835e-06,0.0,-35.24133571999769,-0.7543669799997992,1.8986012899998432
13.000000000000028,-0.36192934999988646,8.398717809998674,87.80034424000014,0.5218812600000001,0.7487150200000312,0.3076315499999964,40.02405153999608,-22.816864859998944,-10.462823330002383,-77.95171954999257,30.498028779997213,9.599999999996706e-07,0.0,37.628338759996446,-21.155057559999307,-7.143120320001914,-75.93370597999257,31.946886809996982,-4.170000000000501e-06,0.0,-30.984529969997546,-0.26509639999969864,1.7066288199999715
13.05000000000003,-0.08305333999979751,6.063040169998708,87.99400512000007,0.5222467300000001,0.800570120000027,0.3006920799999956,33.261760879996245,-20.615979249998567,-14.373332520002018,-64.6458674299924,25.36214556999701,3.399999999997412e-07,0.0,31.357268269996453,-19.93509932999931,-10.476042670001858,-62.636809079992446,26.508191339996877,-4.800000000000212e-06,0.0,-26.594844849997482,0.32558070000037687,1.7718416700000814
13.10000000000003,0.27175512000018764,3.9430025599987983,88.07237785000001,0.5223056099999998,0.8418440400000207,0.2918969399999941,26.946227759996457,-18.002444549998437,-17.464932010001565,-51.72110113999261,20.35532903999722,-2.0000000000051507e-08,0.0,25.270150229996503,-18.684745629999206,-13.662418590001852,-49.776351389992655,21.31524668999713,-4.899999999999714e-06,0.0,-22.11818147999727,0.9757845100003518,1.8988097500000574
13.15000000000003,0.5038491100000886,2.113420199998987,88.02739279999989,0.5218789899999995,0.8685921200000114,0.2817796499999937,21.76922716999737,-15.609077679998714,-19.48107576000085,-40.69167784999421,16.46753321999816,-9.000000000002958e-08,0.0,20.00676700999721,-17.350751769999192,-16.510399350001563,-38.76841182999416,17.293955829998097,-4.4499999999996415e-06,0.0,-17.62044670999734,1.4770440400002391,2.002520920000091
13.200000000000031,0.6551743300001344,0.5867089999991516,87.73717707999974,0.5211634999999994,0.8809130100000041,0.27232120999999465,18.46714183999856,-13.790176669999042,-20.372628230000302,-32.97349284999632,14.341219259999175,-2.9000000000018325e-07,0.0,16.2752440999982,-16.230819579999473,-18.801044640001194,-30.82782565999611,15.171716249999362,-3.919999999999629e-06,0.0,-13.500267249997641,1.8497845300002616,2.275746400000242
13.250000000000032,1.0274399400003493,-0.34967160000021524,87.30855001999977,0.5202616799999993,0.8836060700000005,0.26559078999999663,16.885287759999095,-12.537002379999297,-20.70996351000015,-28.978953009998307,13.652763969999853,-4.1000000000021085e-07,0.0,14.162175809998846,-15.861641800000015,-20.156952360000506,-26.492856519998163,14.98490320000029,-3.3199999999997505e-06,0.0,-10.574358079998769,2.399583880000489,2.6395527500002296
13.300000000000033,1.5425211400001928,-0.44062036000006616,87.11899983999997,0.5190350299999991,0.8838563300000002,0.26142163999999796,15.582530539999361,-11.685093199999688,-21.082341610000224,-26.962630549998998,13.510402039999914,-3.3999999999978467e-07,0.0,12.737879369999398,-15.99089093999998,-20.673252330000164,-24.5036573299991,15.493611600000149,-2.7399999999998213e-06,0.0,-9.198585819999192,2.984174260000197,2.6489483699999132
13.350000000000033,1.7013418199999206,-0.29313926000000784,87.20066666000007,0.5174548799999987,0.8844125300000001,0.2584116099999983,14.365715149999428,-11.410887110000028,-21.547049650000197,-25.50429450999919,13.389354159999938,2.999999999991792e-08,0.0,11.80340289999968,-15.854989699999743,-20.872924510000022,-23.481459979999578,15.544735609999982,-2.3999999999999326e-06,0.0,-8.279172679999252,3.0946537999998553,2.2247133999998367
13.400000000000034,1.5363047999998605,-0.07296154999988358,87.34879016000009,0.5157846199999987,0.8848695699999998,0.25616771999999877,13.40177434999949,-11.547664150000141,-21.858710000000173,-24.518325259999493,13.442511250000095,2.0000000000064375e-08,0.0,11.238182169999783,-15.45784573999973,-20.84051228999987,-23.097511999999917,15.668923130000056,-2.3099999999998542e-06,0.0,-7.513254079999501,2.7895768999997808,1.7739412999996864
13.450000000000035,1.29190070999983,0.06918695000011794,87.46154583000005,0.5140594599999989,0.8845346699999995,0.2548467099999993,12.851168659999663,-11.84276249000021,-21.987239210000027,-23.9906031699997,13.646954920000164,-8.99999999999521e-08,0.0,11.039839899999869,-15.05657853999974,-20.68056777999988,-23.149754980000093,15.988820560000296,-2.1799999999997157e-06,0.0,-6.821968149999577,2.505252519999803,1.4596977699998017
13.500000000000036,1.1143421900000576,0.2504434500002233,87.38273979999987,0.5129179399999996,0.884112,0.25398846999999936,12.360036899999432,-12.026245359999862,-21.961180740000017,-23.511411669999454,13.840083960000026,-2.0000000000002594e-08,0.0,10.76502670999966,-14.788808270000036,-20.627824209999968,-23.22840921000002,16.46681083000034,-2.0599999999996703e-06,0.0,-6.300975359999756,2.321254150000026,1.368984250000053
13.550000000000036,1.2213370200000926,0.4818936700000836,87.0799358199997,0.5129241900000003,0.88409742,0.2534233699999999,11.808349869999857,-11.785505269999831,-21.847180319999893,-22.894713309999773,13.824860529999993,1.200000000002317e-07,0.0,10.35619534999981,-14.923274980000153,-20.721691580000154,-23.268568000000055,16.77591825000017,-1.9899999999999835e-06,0.0,-5.968377709999746,2.3710368600000202,1.5016270100001297
13.600000000000037,1.3620596500001194,0.6120769700001372,86.63486390999968,0.5134938700000005,0.8840777600000003,0.25382282000000067,11.741170400000003,-11.546597499999828,-21.57496569999976,-22.758337130000037,13.753665709999936,2.3999999999999765e-07,0.0,10.139122779999866,-15.167096340000207,-20.969933930000167,-23.411348620000165,16.93567941000006,-2.000000000000074e-06,0.0,-5.76570446,2.396914450000046,1.705131200000147
13.650000000000038,1.504444850000083,0.8260385500001869,86.36869739999989,0.5143013600000006,0.8841567199999999,0.25502420000000103,11.752843019999993,-11.362177279999901,-21.374795049999893,-22.932309930000187,13.732346380000031,2.8000000000008933e-07,0.0,10.064520119999992,-15.43589091000018,-21.013935179999944,-23.7356772800003,17.02180375000005,-2.100000000000154e-06,0.0,-5.913875230000195,2.375896999999931,1.7864595799999572
13.700000000000038,1.5735394700000618,1.0900528500002025,86.30910312000002,0.5152702300000009,0.8842188,0.2567341900000016,11.757531280000068,-11.284146909999949,-21.250338249999942,-23.236718580000353,13.788594000000103,2.4000000000004154e-07,0.0,10.13200039000015,-15.646552500000205,-20.84947823999981,-24.193710240000456,17.021168390000014,-2.190000000000107e-06,0.0,-6.311379350000376,2.2039602499998177,1.6230118099997424
13.750000000000039,1.7208467000001237,1.328277420000243,86.41253376000006,0.5163932300000007,0.8842542600000002,0.25904554000000196,11.812026029999991,-11.131601289999871,-21.248883459999988,-23.61227707000029,13.843913140000012,1.8999999999994784e-07,0.0,10.43030659000021,-15.981299140000278,-20.46419466999972,-24.818561380000517,16.943055509999866,-2.299999999999917e-06,0.0,-6.884210190000617,2.062763219999926,1.2158339099997582
13.80000000000004,1.9017311300001845,1.7990316400005326,86.48036992000002,0.5175463100000008,0.8846653100000006,0.26213201000000297,11.779012439999947,-10.980221609999873,-21.18785479999989,-24.169100250000625,13.89054070000005,1.700000000000945e-07,0.0,10.660052400000128,-16.381468590000377,-20.10091773999965,-25.675194650000858,16.787288969999913,-2.380000000000267e-06,0.0,-8.029674010001225,1.9977467199999963,0.993435919999864
13.85000000000004,2.1708164300002495,2.5840114500007245,86.5435693500001,0.5186836100000007,0.8849422199999998,0.26708041000000504,11.868343470000246,-10.872224169999972,-21.083881809999937,-25.350046020001358,13.97408607000011,1.2000000000023255e-07,0.0,11.14139470000067,-16.974682160000576,-19.504307289999325,-27.315723650001786,16.612609029999813,-2.630000000000372e-06,0.0,-9.98116672000192,2.0282387300000617,0.8421016499998647
13.900000000000041,2.5864627400004006,3.5222586900007604,86.82620487000034,0.5195489600000003,0.8839924799999981,0.27482013000000766,12.52169665000094,-10.870462970000085,-21.086544060000072,-27.648610520002503,14.179307750000255,2.9999999999928496e-08,0.0,12.546878750001724,-17.88367532000085,-18.246786809998547,-30.258910970003058,16.437351210000088,-3.290000000000679e-06,0.0,-12.701649800002484,2.2539901200002768,0.5730457099997751
13.950000000000042,3.241116040000576,4.268008310000568,87.41299700000053,0.5196239799999994,0.8795438399999939,0.28591208000001067,14.493449290002413,-11.046078590000382,-21.141925489999846,-31.709217290004496,14.675206730000674,-1.6000000000020461e-07,0.0,15.647306990003251,-19.112870880001047,-15.794564369997588,-34.92212822000464,16.96736294000074,-4.1300000000006635e-06,0.0,-15.842842350002845,2.9065027200006632,0.2802356299998859
14.000000000000043,3.694778000000056,4.832949320000413,87.89665427000023,0.5185008399999986,0.868462029999987,0.29932107000001196,18.40374473000429,-12.018557870001398,-20.426524319998816,-38.41393390000698,15.927211780001539,-4.800000000002673e-07,0.0,20.07492586000421,-20.131386580000576,-12.95762734999773,-41.15697460000599,18.27595469000155,-4.800000000000403e-06,0.0,-19.240145760002918,3.4914048200001524,0.3393839600002254
14.050000000000043,3.207777219999214,5.385879710000542,87.87238215999974,0.5170233699999992,0.8478847899999782,0.31308745000001126,24.235900750005477,-14.311081100002347,-18.29531892999774,-47.67491417000857,18.233833250002355,-5.399999999996784e-07,0.0,25.164029140004452,-20.4375420900001,-10.863822409998654,-48.949744430007236,20.647936190002433,-4.9699999999999024e-06,0.0,-22.69113516000293,2.973279469999072,0.7247003600003554
14.100000000000044,2.2127612399992334,6.061935600000569,87.57834285999986,0.5163863899999994,0.8179672099999697,0.3254224800000101,30.81558930000587,-17.08901398000238,-15.605604659997846,-57.89096327000905,21.359767950003032,2.4000000000115517e-07,0.0,30.715067560005313,-20.62055883000034,-9.295089759998433,-58.043273550008486,23.745388000002894,-4.619999999999231e-06,0.0,-26.03515636000279,1.7467008899990655,1.0205105100001541
14.150000000000045,1.7066610799998485,6.6168826100005,87.64332171000022,0.5155274599999988,0.781191069999965,0.3359529000000083,37.43455856000576,-19.38793656000172,-13.296858119998031,-67.95040819000879,24.675050660002835,1.1800000000005202e-06,0.0,37.092874060005855,-21.257946690000725,-7.131875439997722,-67.74727252000865,27.04263012000294,-3.589999999998743e-06,0.0,-28.966974300002498,1.2472129800000018,1.117154440000115
14.200000000000045,1.5719855199997792,7.389187830000926,87.98942593000024,0.5144341399999992,0.7405202499999615,0.34407685000000604,43.679686720005584,-21.10631825000138,-10.8430716099973,-77.70365721000887,27.836617610002833,1.4299999999997402e-06,0.0,43.49434672000557,-22.043495850000618,-4.575050329997788,-77.40882391000876,30.21207153000271,-2.33999999999943e-06,0.0,-31.862897400002765,1.2888043499998727,1.4108803800004313
14.250000000000046,1.1613080599995922,8.62751533000126,88.08830249999991,0.5139693899999997,0.6984717799999609,0.3491114600000035,49.47857337000517,-22.41400250000097,-7.530352929996775,-87.02023501000829,30.91149426000272,1.2499999999998868e-06,0.0,48.92634223000463,-22.585380390000438,-2.405708369998001,-86.59017479000818,33.10256685000262,-1.7499999999995718e-06,0.0,-34.9140210100028,0.8627160399994873,1.96916777000055
14.300000000000047,0.8837019099998333,10.135348830001504,87.90214018999983,0.5140619200000001,0.6567099099999621,0.3520393100000019,54.686217410004474,-23.236398460000714,-4.27467122999722,-95.58054464000756,33.675933070002365,1.3800000000004243e-06,0.0,53.589810990004025,-23.21234862000064,-0.15102274999788146,-95.0684898000075,35.822409940002416,-9.399999999989451e-07,0.0,-38.00184984000286,0.3925105599996434,2.542907980000458
14.350000000000048,0.6198316399996397,11.829298380001639,87.84473616000012,0.5138392499999994,0.6164439199999625,0.35308354,59.26139239000416,-24.18960522000107,-1.3047052099971148,-103.39192572000712,36.068933160002196,2.080000000000864e-06,0.0,57.59765195000352,-23.725159120000235,2.0575740200020474,-102.75658401000693,38.398631370002434,2.900000000014736e-07,0.0,-40.993498450002704,0.008877179999629023,2.825718680000073
14.400000000000048,0.2067398499997231,13.479341570001552,88.00877855000009,0.5131398699999995,0.5790178699999659,0.3522228699999983,63.40536844000363,-25.167715250000676,1.8040855400028648,-110.36899079000622,38.17531741000193,2.8300000000006404e-06,0.0,60.966788550002974,-23.724316549999983,4.20486937000214,-109.51935973000609,40.76297290000213,1.4400000000007968e-06,0.0,-43.59343416000229,-0.39459093000029855,2.727997429999942
14.450000000000049,0.13229394000006364,15.153681730001683,87.9533529799998,0.5128355999999998,0.5460330899999701,0.3499158399999973,66.61201730000266,-25.57660315000018,4.46200562000236,-116.28121603000525,40.03159890000165,3.500000000000512e-06,0.0,63.67007499000224,-23.80570392000014,6.510692530002252,-115.40233992000532,42.82234830000185,2.2100000000004557e-06,0.0,-45.88421765000218,-0.574362130000155,2.7993853700001847
14.50000000000005,0.26785078000021645,16.74673980000148,87.72791555999976,0.5127351299999999,0.5196488099999779,0.34684500999999657,68.79060152000156,-25.685784080000076,6.532253500001663,-120.91259564000387,41.493876570001255,4.140000000000675e-06,0.0,65.50285841000131,-23.92036990000015,8.618701820001887,-120.10694389000395,44.4156321900014,2.590000000000366e-06,0.0,-47.85840336000172,-0.6963958500000674,2.934004450000041
14.55000000000005,0.5625579000003044,17.985228420000997,87.52589913999984,0.5127356900000001,0.5025903899999887,0.34304318999999606,69.72636387000027,-25.802188670000152,7.668436350000641,-123.92082048000208,42.56506682000081,4.670000000000228e-06,0.0,66.39043770000038,-24.10318184000022,10.239843550001217,-123.2223207400022,45.58960153000077,2.640000000000114e-06,0.0,-49.175885290000934,-0.6551255599999646,3.0185069700000255
14.600000000000051,0.870537050000302,18.640676140000295,87.24348679999966,0.5131322800000007,0.4974415100000016,0.33929796999999645,69.39270725999897,-25.847661189999943,7.770704009999516,-124.94102049999985,43.17070364000037,4.940000000000136e-06,0.0,66.18878833999906,-24.481912130000424,10.903562390000127,-124.36471603999993,46.122572020000355,2.230000000000129e-06,0.0,-49.61360726999992,-0.6791798800000562,3.1028058700001884
14.650000000000052,1.087642320000063,18.581607009999512,86.98460548999986,0.5138942100000006,0.5060924700000158,0.33617527999999697,67.70594413999767,-25.79140631999999,6.77874052999857,-123.67823847999747,43.25803265999979,4.849999999999648e-06,0.0,64.58756949999776,-24.778326310000143,10.447172869998798,-123.07256951999743,46.239476979999765,1.9999999999995196e-06,0.0,-49.05851932999882,-0.7196035600000594,3.2742262100000303
14.700000000000053,1.0165041599998124,17.78028540999876,86.94648225000002,0.5143774000000004,0.5280342200000301,0.3333904199999971,64.91097370999648,-25.788137029999973,5.047378519997774,-120.14929748999504,42.764857529999084,4.349999999999385e-06,0.0,61.85859256999653,-24.844261939999996,8.602600469997384,-119.48175369999495,45.66720197999901,1.2499999999990404e-06,0.0,-47.38895530999763,-0.7947042200000936,3.1648881299997687
14.750000000000053,0.8376052799998929,16.420870869998385,86.91863616999989,0.5145940500000001,0.5619299200000416,0.3304697099999966,61.03300286999523,-25.642724439999622,2.61183307999701,-114.42687364999283,41.52383059999827,3.8399999999991425e-06,0.0,58.02667796999536,-24.791957949999944,5.724626129996629,-113.7094553699928,44.38382576999826,2.6999999999876413e-07,0.0,-44.78739121999686,-0.8628402600000055,2.929284199999784
14.800000000000054,0.7601474199998924,14.765042099998126,86.82557079999995,0.5145821299999996,0.6053280400000504,0.32681620999999567,56.08523520999428,-25.169436699999373,-0.4650852200034354,-106.73869719999084,39.45621664999731,3.2899999999992748e-06,0.0,53.26895579999453,-24.57699118999952,2.351465699996183,-106.06479445999095,42.30361989999727,-9.800000000012904e-07,0.0,-41.59061958999636,-0.7978151599998802,2.731100969999734
14.850000000000055,0.7172320499999594,12.941372909997853,86.78795034999999,0.5141526299999992,0.6554871600000574,0.32244828999999486,50.34446385999345,-24.399578769998996,-3.8804280800038784,-97.29915819998874,36.487509619996224,2.8199999999996338e-06,0.0,47.74690194999369,-23.90809137999898,-1.2040269500038565,-96.65827656998874,39.47225124999644,-2.190000000000918e-06,0.0,-38.054087849995916,-0.6180860599997743,2.49993788999973
14.900000000000055,0.8180663700002964,10.86525429999756,86.80476014000004,0.5134281599999989,0.7082432900000578,0.3174538899999941,44.267225909993186,-23.22233872999837,-7.57120510000424,-86.4552643899874,32.74563805999546,2.349999999999528e-06,0.0,42.09500369999388,-23.011659699998997,-4.617235790003537,-85.96537630998769,35.718315409995455,-3.3200000000011333e-06,0.0,-34.18667463999556,-0.2628386299993848,2.266565359999765
14.950000000000056,1.0996911200002677,8.687616249997694,86.83100114000001,0.5126554599999993,0.7594965500000561,0.31173313999999297,38.04699903999286,-21.46547648999776,-11.247991970003847,-74.63493447998627,28.341176789994744,1.7499999999997323e-06,0.0,36.38930270999325,-22.055049839998798,-7.830893240003698,-74.40068122998652,31.341082609994757,-4.180000000000684e-06,0.0,-30.18268657999558,0.26690757000049653,2.094308099999857
15.000000000000057,1.2986119800002207,6.762027969997957,86.82626567999998,0.5120332299999992,0.8052268600000472,0.30482018999999116,31.862115359993094,-19.35757947999747,-14.290180740003102,-62.549684119986395,23.686583979994747,1.1099999999992353e-06,0.0,30.462313859993316,-20.88864098999859,-11.025282480003504,-62.57399671998673,26.684133499994765,-4.720000000000494e-06,0.0,-26.298086039995603,0.6708529700004625,1.9866107699999138
15.050000000000058,1.5061642200002012,5.0518936499981715,86.78526063999992,0.5114971199999996,0.8415698600000352,0.2964665299999899,26.068950449993807,-17.071940069997414,-16.70430288000233,-50.96860797998743,19.289802329995354,4.899999999992648e-07,0.0,24.849839269993936,-19.628297769998504,-13.906289950003043,-51.35655011998787,22.338493899995473,-4.809999999999818e-06,0.0,-22.37835393999552,1.0886876100004337,1.9158698399999219
15.100000000000058,1.591429399999937,3.470420479998218,86.74966826000005,0.5112810099999999,0.8663714300000221,0.28732908999998935,21.209803449995057,-14.976521719997892,-18.432068370001637,-40.818978959989366,15.792647759996651,1.9999999999366056e-08,0.0,20.03647425999504,-18.26264327999827,-16.34109456000244,-41.487778889989535,18.912646519996695,-4.5299999999995e-06,0.0,-18.36110028999532,1.3333901500000567,1.8621834099999206
15.150000000000059,1.4662832399998356,2.0383109099985113,86.94033409000039,0.5111954399999998,0.8794455200000091,0.27881437999999115,17.75051118999681,-13.560561249998752,-19.73852131000144,-33.150198039992794,13.693258089998455,-3.8000000000048764e-07,0.0,16.750791809997224,-16.90984426999861,-18.083788830001325,-34.08910331999321,16.688860439998223,-4.219999999999845e-06,0.0,-14.517169559995876,1.3643555299999595,1.6709406299996652
15.20000000000006,1.3336246099998432,1.0671607599994877,87.34407170000051,0.5111691000000003,0.8837531700000024,0.2727078999999943,15.62252319999769,-12.829914599999451,-20.882439000001177,-28.489202809995902,12.972433889999774,-4.099999999999377e-07,0.0,15.045228249998177,-15.989325039999143,-18.79035958000042,-29.78791379999627,15.77366504999953,-3.889999999999448e-06,0.0,-11.575119109997528,1.3231963299998495,1.4151817799997062
15.25000000000006,1.132386599999773,0.8710470100000776,87.72327953000043,0.5113831600000003,0.8848026000000007,0.2694056999999973,14.151632179998469,-12.645000079999924,-21.68875819000087,-26.105574359997984,12.964826010000099,-1.6999999999947544e-07,0.0,13.816656579998652,-15.356029709999376,-19.02179616000012,-27.477689679997887,15.542459979999826,-3.2899999999993637e-06,0.0,-10.089749899998875,1.0888157499997158,1.3661596000000262
15.300000000000061,1.0091052099998639,0.9293096399998074,88.08934413000047,0.5116700300000003,0.8853030400000004,0.267886299999999,13.198148159999489,-12.586834710000003,-22.321339790000668,-24.896928549999082,13.051583640000027,1.9999999999781353e-08,0.0,13.006871579999641,-14.974706359999622,-18.976179189999726,-26.16047137999885,15.379696179999648,-2.8499999999995238e-06,0.0,-9.324484699998903,0.9657858899999093,1.4130010700000866
15.350000000000062,0.9347457899999236,1.1007733200002925,88.43551281000038,0.5120248200000006,0.8857799900000003,0.26716426999999937,12.549880709999336,-12.589005050000011,-22.808814910000383,-24.345868179999652,13.135124450000209,-1.0000000000220934e-08,0.0,12.475027009999483,-14.753011969999807,-18.811664019999682,-25.44205411999948,15.177268110000071,-2.589999999999812e-06,0.0,-8.877379579999578,0.9430973500000098,1.3685052599999388
15.400000000000063,0.8505695799999222,1.3532622400005705,88.66618996000014,0.5125863400000006,0.8858077699999998,0.26685358999999953,12.166500209999343,-12.655247430000067,-22.963159730000058,-24.311984010000074,13.370259240000395,-2.0000000000022295e-07,0.0,12.133245629999289,-14.620608079999904,-18.572836519999843,-25.218093019999827,15.286864900000175,-2.5599999999997934e-06,0.0,-8.562967359999911,0.9445747900000472,1.3861857600001393
15.450000000000063,0.8325857799999876,1.7277611000004414,88.85343318000025,0.5131980900000008,0.8858221400000001,0.26671222000000006,11.633015529999282,-12.640430259999947,-23.15066925000032,-24.22656310999974,13.639761260000322,-1.5999999999964645e-07,0.0,11.71613296999956,-14.602114249999998,-18.3866467599998,-25.118134589999922,15.384029620000184,-2.459999999999848e-06,0.0,-8.447678259999899,1.0298845100001357,1.495974650000129
15.500000000000064,0.8027567199999126,1.9260463700000638,89.04156334000025,0.5138224000000009,0.88588455,0.26700244000000084,11.203649029999694,-12.591487229999991,-23.40034642000035,-23.925376089999627,13.759394880000094,-1.9999999999983302e-07,0.0,11.543684700000053,-14.589739309999949,-18.27162512999985,-25.036460359999943,15.370528549999854,-2.360000000000144e-06,0.0,-8.278164039999654,1.0901603699999896,1.5654668200000021
15.550000000000065,0.7635714100000373,2.0238912100001243,89.13977263999995,0.514480950000001,0.88584746,0.26800239000000176,11.003470339999911,-12.55610038999984,-23.581682049999973,-23.697036859999848,13.796604840000127,-1.4999999999982026e-07,0.0,11.553498740000052,-14.593517230000158,-18.20165261000006,-25.044455800000126,15.272208389999859,-2.2999999999999572e-06,0.0,-8.144990669999974,1.1100979000001026,1.5866220200000607
15.600000000000065,0.8320372900000836,2.122972720000141,89.05326588999978,0.5151532800000007,0.8858598899999999,0.2696548800000025,10.991072980000121,-12.40755196999985,-23.523268569999768,-23.610721160000054,13.75802159999988,-1.5000000000004645e-07,0.0,11.58419612000003,-14.734927770000182,-18.19238589000007,-25.125318360000136,15.1963021399999,-2.309999999999932e-06,0.0,-8.231730450000248,1.246866680000203,1.6574586000000953
15.650000000000066,0.8684811300000894,2.1893100900000184,88.90737597999978,0.5156502200000006,0.8858414199999998,0.271735020000003,11.15168938000036,-12.338500379999871,-23.354882699999724,-23.67974621000019,13.65774464999983,-1.3000000000005463e-07,0.0,11.639537950000207,-14.829468700000193,-18.225834900000038,-25.179577060000152,15.115384259999889,-2.319999999999943e-06,0.0,-8.415136760000172,1.3398633600001677,1.7089151300000778
15.700000000000067,0.9213700600000188,2.1653288999999565,88.76903772999984,0.5160943400000004,0.88572417,0.2741951300000034,11.442394840000333,-12.257739829999936,-23.193901389999866,-23.767133019999996,13.513526989999825,-1.800000000000169e-07,0.0,11.82821792000022,-14.941380600000063,-18.229571900000014,-25.250098649999977,15.033313739999898,-2.369999999999984e-06,0.0,-8.589917350000311,1.432364460000054,1.7164044999999553
15.750000000000068,0.9272604800000376,2.163151080000084,88.63279050999974,0.5163738000000002,0.8857097099999998,0.27681210000000367,11.691511670000356,-12.227492699999958,-23.041432049999663,-23.804110220000204,13.367413479999787,-9.000000000026815e-08,0.0,11.976432390000184,-14.981275240000114,-18.251531950000064,-25.271968190000187,14.932283969999853,-2.2900000000000484e-06,0.0,-8.87667095000051,1.4611038600000648,1.656807559999867
15.800000000000068,0.9994173400001968,2.24387026000023,88.49499243999982,0.5166073100000004,0.8856856,0.2797944200000043,11.939422290000326,-12.16239302999986,-22.863462699999765,-23.983183300000437,13.253842639999917,-9.00000000000377e-08,0.0,12.149117280000246,-15.109995890000317,-18.24149026999999,-25.44021359000045,14.863584530000054,-2.360000000000012e-06,0.0,-9.367790470000907,1.5578348000002613,1.5689528299998399
15.850000000000069,1.204574340000292,2.4636158700004076,88.40608366999993,0.5168425000000003,0.8857131400000002,0.28350360000000596,12.197594290000428,-12.018938049999866,-22.74097943999991,-24.404014910000846,13.112143269999777,-5.999999999977815e-08,0.0,12.413607630000454,-15.413980540000457,-18.09758261999973,-25.891317120000828,14.824628879999871,-2.4400000000000533e-06,0.0,-10.210280030001492,1.7926940700003504,1.436254089999788
15.90000000000007,1.462191560000392,2.7429631300002955,88.41403040000006,0.5170418300000004,0.8855731299999994,0.2885797300000083,12.689335870001118,-11.917863379999917,-22.69168188999994,-25.245315500001638,12.940728989999752,7.745305665640275e-20,0.0,12.975200530001201,-15.817610580000652,-17.726799869999308,-26.72172360000151,14.698808489999767,-2.5700000000003824e-06,0.0,-11.459104090001926,2.0512528600003734,1.1761779899995393
15.95000000000007,1.7033431800002847,2.9582319800000603,88.47423920000013,0.5173509900000004,0.8846879499999976,0.2956305000000118,13.858505420002537,-12.003416620000353,-22.533535129999567,-26.9556143800033,12.807492069999855,-2.0000000000614245e-08,0.0,14.10943075000244,-16.285958770000697,-17.115090519998898,-28.132116340002725,14.600081189999885,-2.8000000000005064e-06,0.0,-13.102127110002389,2.2753660300003378,0.9702383699997083
16.00000000000007,1.7809933099999342,3.1137802600005378,88.49976913999988,0.5177113700000007,0.8818080299999937,0.30511682000001533,16.11295870000386,-12.514821630001144,-21.855860359998502,-30.128132730005927,12.943536220000587,-2.1000000000024172e-07,0.0,16.132985700003267,-16.704554760000565,-16.12036480999843,-30.661916530004746,14.825663520000727,-3.280000000000772e-06,0.0,-15.14938569000361,2.314699499999806,0.8363592899999739
16.05000000000007,1.594695069999486,3.641529890000855,88.3798202899999,0.5182194200000008,0.8748013499999853,0.317207430000019,19.509287830005995,-13.653213660002187,-20.415223229997498,-35.520596880009535,13.698422770001674,-5.600000000004502e-07,0.0,19.077660320005325,-17.08752952000048,-14.68798259999745,-35.19957482000826,15.617530720001557,-3.870000000001109e-06,0.0,-18.0692035700045,2.0206758199992825,0.8685430000000152
16.100000000000072,0.9547484299987216,4.345377590001268,88.37222287000014,0.51855977,0.859895679999972,0.3309455200000194,24.424826270007667,-15.706425520003616,-18.402504599996863,-43.39882621001264,15.380433380003236,-6.199999999993873e-07,0.0,23.452131850006882,-17.229460319999973,-12.699491909997072,-42.15034782001143,17.217018520003087,-4.500000000000419e-06,0.0,-21.408853050005,1.2485460799986074,0.783853829999775
16.150000000000073,0.09776573999894146,5.292855570001441,88.62062025000068,0.5184026699999993,0.8344000399999539,0.34372625000001755,30.19574915000901,-18.43365951000412,-16.274378269996966,-53.04727039001521,18.270115750005097,1.700000000016883e-07,0.0,28.88543327000895,-17.454934520000734,-10.750614529997046,-51.209999700014755,19.899955920004675,-4.209999999998502e-06,0.0,-24.82418790000483,0.3689180899990861,0.4333553799993835
16.200000000000074,-0.38413259000045047,6.209832030001335,89.18715077000094,0.5179085299999994,0.7995096499999431,0.3542462800000139,36.382490060009346,-20.996454970003523,-14.220671919996846,-63.39024893001547,21.839870020005378,1.1200000000013227e-06,0.0,35.217331330009685,-18.19272219000135,-8.659428399996752,-61.42591682001536,23.257293370005165,-3.029999999997733e-06,0.0,-27.80212336000412,0.04700054999985084,0.042971739999648706
16.250000000000075,-0.605052690000306,7.184257620001632,89.77555158000081,0.51766779,0.7594235699999381,0.36223032000000993,42.56090420000902,-23.094384950002777,-11.850807609996048,-73.58775740001491,25.330478250004987,1.7400000000001727e-06,0.0,41.57346933000913,-19.10189780000122,-6.357809199996358,-71.56675116001479,26.680442750004943,-1.509999999997834e-06,0.0,-30.473695210003946,0.003968429999915509,-0.09127963000015706
16.300000000000075,-0.8189271000002512,8.459046130002157,90.2371194300005,0.5179481500000009,0.7168688799999353,0.36725459000000515,48.34646076000828,-24.763162560002087,-9.03145436999555,-83.3353515900142,28.713966620004996,2.070000000000324e-06,0.0,47.3264018400081,-19.93073135000137,-3.978557309996467,-81.22406031001408,29.948389020004722,8.000000000221166e-08,0.0,-33.090923880003864,-0.1320635400002833,-0.22833923000019987
16.350000000000076,-0.9539758100002502,10.208904370003067,90.38594475000006,0.5187398000000012,0.6732420699999351,0.36929284000000134,53.4996617200071,-25.955112560001655,-5.961944389995326,-92.57502569001335,31.976613340004764,2.570000000000549e-06,0.0,52.30566122000667,-21.053564570001758,-1.7525183799968416,-90.47394464001337,32.912504940004254,1.5800000000020682e-06,0.0,-35.8031448300043,-0.3780399000005153,-0.26618701999982075
16.400000000000077,-1.2199863300004627,12.4022601500035,90.46553799000021,0.5191282300000003,0.6301572199999337,0.36940403999999905,58.032924070006786,-27.064940980001662,-2.6775038499947903,-101.18648267001291,34.973672260004385,3.210000000001283e-06,0.0,56.32316511000589,-21.93312682000104,0.43586208000356236,-98.96845883001268,35.839463090004436,3.110000000001878e-06,0.0,-38.71091750000445,-0.7755456600005786,0.003738010000468803
16.450000000000077,-1.4597900400002823,14.483813870003093,90.56246556000002,0.5191691700000001,0.5885832699999367,0.3683091199999978,62.36383066000669,-27.934527610000952,0.6468606400052119,-109.01887357001158,37.531638090003604,3.8800000000008285e-06,0.0,60.137655730005896,-22.50002222000085,2.8228367400038263,-106.72864111001158,38.38715506000358,4.260000000001373e-06,0.0,-41.32650143000387,-1.085206420000442,0.3295595100005883
16.500000000000078,-1.5685286000000516,16.430619640002956,90.48710110999983,0.5190999299999995,0.5497195299999419,0.3667335899999971,66.409516330006,-28.32607391000039,3.8740718700048213,-115.94676486001012,39.71340994000315,4.220000000000582e-06,0.0,63.70535972000532,-22.99378837000064,5.315062580004005,-113.69735548001022,40.47407299000296,5.13000000000149e-06,0.0,-43.77630435000372,-1.32862435000026,0.6962760300005058
16.55000000000008,-1.5159479799998488,18.311240200002878,90.41316465999995,0.518593889999999,0.5147298199999492,0.364808369999997,69.91719753000503,-28.515924700000276,6.793961660004293,-121.9410538000086,41.41094887000219,4.590000000000986e-06,0.0,66.90489686000464,-23.33456003000038,7.904584860004003,-119.7922956300088,42.18907487000235,6.0800000000010565e-06,0.0,-46.12710374000361,-1.3262093399998802,0.9277020100002338
16.60000000000008,-1.4026555799997462,20.065692690002816,90.36398281999985,0.5178078099999989,0.48491282999995816,0.362879199999997,72.8279685100038,-28.600476830000012,9.3857832500037,-126.90105964000693,42.54511859000141,5.250000000001597e-06,0.0,69.56829613000342,-23.48951689000026,10.346162880003627,-124.85989608000708,43.51370120000186,7.000000000001257e-06,0.0,-48.36448638000365,-1.2248999799997806,1.007462420000037
16.65000000000008,-1.103586079999267,21.775695060002665,90.15701786999956,0.517226539999999,0.46145048999996724,0.3611166199999972,74.78642241000233,-28.37762089999957,11.432152560002654,-130.74873245000532,43.14799827000071,6.170000000001245e-06,0.0,71.3981139300024,-23.612500570000204,12.650578570003688,-128.81415219000553,44.53853849000147,7.80000000000101e-06,0.0,-50.577295670003494,-1.0884091399995806,1.1129719900005557
16.70000000000008,-0.7436000899990161,23.185136110002233,89.9430898599994,0.5166670099999998,0.4448839999999801,0.35943514999999765,75.9122803100005,-28.21619233999958,12.804477060001036,-133.42435141000325,43.52789346000065,6.920000000000659e-06,0.0,72.48078208000092,-23.629440270000313,14.544828870002995,-131.6032823400035,45.305916990001116,8.440000000000514e-06,0.0,-52.43790191000293,-0.9236541699995996,1.3058120300005691
16.75000000000008,-0.29756057999946084,24.097311770000704,89.68297980999962,0.5161271299999991,0.4366145999999933,0.3578464099999973,76.05799232,-28.14746785000002,13.233863800000226,-134.74422665000105,43.747699110000205,7.200000000000095e-06,0.0,72.78153466000008,-23.672476070000073,15.807979070001139,-133.08225682000125,45.85395828000075,8.709999999999705e-06,0.0,-53.64956003000099,-0.7503697999998784,1.4461692900000511
16.800000000000082,-0.052500829999757546,24.062403049999205,89.42598954999963,0.5155780899999988,0.43726548000000914,0.356346209999998,75.77929987999909,-28.140059460000142,12.987827629998998,-134.62460152999853,43.88260902999996,7.280000000000208e-06,0.0,72.53172413999907,-23.79412182000028,15.915045029999119,-133.1191984399988,46.105951350000154,8.379999999999019e-06,0.0,-53.713663679999286,-0.7643610800000625,1.5061834500000317
16.850000000000083,-0.08978992000033122,23.18110035999786,89.39790660000021,0.5138672199999961,0.4478944800000252,0.3553926299999988,74.8828112699981,-28.535143450001023,12.117512599998104,-132.8579578099958,43.70234212999956,7.129999999999949e-06,0.0,71.54850946999785,-23.7974127499998,14.623801779996802,-131.60101695999631,46.044697159999664,7.569999999997824e-06,0.0,-52.825126189997725,-0.7232079399998499,1.3600270799995937
16.900000000000084,-0.4211275500005918,21.50476475999696,89.46855351999983,0.5119601899999981,0.46766846000004153,0.3547960599999992,73.46188979999663,-29.03218087000039,10.683160349996935,-129.57965406999324,43.22913997999886,6.789999999998946e-06,0.0,69.87992869999611,-23.8016532200005,12.138149399995083,-128.50739613999335,45.64176700999902,6.459999999998172e-06,0.0,-50.9569809199965,-0.8439965200005717,1.0191072299995279
16.950000000000085,-0.7698419800005526,19.421028329996492,89.38924114999978,0.5111478999999987,0.4959746700000558,0.3537961299999976,71.09925716999473,-29.199846670000195,8.525093339995736,-124.94551371999083,42.35902664999824,6.369999999999477e-06,0.0,67.30969956999444,-24.0098201900003,9.05889898999432,-123.87461592999084,44.83027566999831,5.639999999998485e-06,0.0,-48.38415339999538,-1.1654054600005128,0.8351535199997139
17.000000000000085,-1.0141776300002583,17.390520969996512,89.15233509999948,0.5103406599999988,0.5324949400000684,0.35192161999999594,67.35130641999265,-29.089216059999472,5.732049619994724,-118.85421051998843,41.09381631999739,5.849999999998978e-06,0.0,63.45767283999263,-24.135971669999975,5.587130539994003,-117.79773992998848,43.61787289999752,4.649999999997866e-06,0.0,-45.55419722999493,-1.4278901900003798,0.7408384599999782
17.050000000000086,-1.0409135699998262,15.398387009996641,88.78055135999931,0.5094925099999984,0.5755773900000779,0.3489883799999941,62.54091913999112,-28.553297809998668,2.4400917199941268,-111.43705433998633,39.170702789995914,5.199999999998869e-06,0.0,58.73455227999146,-23.9376517999993,2.1368444699943616,-110.41994323998642,41.910928329996565,3.299999999997193e-06,0.0,-42.53895161999477,-1.5340979799999777,0.7552100000000777
17.100000000000087,-0.8531781399996072,13.435648659996687,88.3773289399993,0.5087834799999991,0.6231606000000837,0.3450860899999927,57.031107049990155,-27.590682739998133,-1.1445682000063406,-102.85968984998442,36.4799610599951,4.539999999998845e-06,0.0,53.555319059990886,-23.37769284999884,-1.0252527100052515,-101.91702211998464,39.5713772299954,1.5399999999963737e-06,0.0,-39.40087202999459,-1.4397674599997732,0.8860954000002941
17.150000000000087,-0.5701869499993256,11.543363899996598,87.98216439999939,0.5084330299999996,0.6729167700000888,0.340379189999991,51.03891361998916,-26.34184998999744,-4.940724590006908,-93.24558536998217,33.41080363999411,3.8899999999988176e-06,0.0,48.08144553999029,-22.669239809998675,-4.042408040005038,-92.47608547998252,36.48595758999404,-4.00000000003015e-07,0.0,-36.231908969994265,-1.2459614499994134,1.112268340000474
17.200000000000088,-0.21181333999949473,9.66921327999679,87.6805039599996,0.508536630000001,0.7224126600000869,0.33515404999999043,44.87696655998899,-24.707540769996804,-8.723604790006382,-82.81032264998083,29.83574201999324,3.2099999999988554e-06,0.0,42.472435869989724,-21.811695869998186,-6.797009490004792,-82.16264750998084,32.90828855999325,-1.8700000000018263e-06,0.0,-33.045738289994496,-0.9279897399995714,1.389283740000428
17.25000000000009,0.051885440000446426,7.922009069996895,87.55261123999998,0.5091655400000012,0.7698143500000808,0.3295702699999897,38.63646051998896,-22.73207022999616,-12.12419289000569,-71.71865809997978,25.785854689992487,2.359999999998386e-06,0.0,36.58990353998963,-20.61690934999773,-9.318601920004362,-71.00779738997969,28.898248539992366,-2.7700000000011136e-06,0.0,-30.026720199994678,-0.6799074999995343,1.5512548000001503
17.30000000000009,0.32844501000056014,6.191947169996945,87.64355687000037,0.5098751100000013,0.8123960500000694,0.3234213099999884,32.48356598998933,-20.41043271999563,-15.148005290005033,-60.185613559979494,21.457404089992256,1.4099999999982929e-06,0.0,30.879715859990217,-19.34123538999776,-11.706281760004018,-59.54241303997979,24.408845849991845,-3.4800000000008984e-06,0.0,-27.049495919994722,-0.36434484999932504,1.558843609999854
17.35000000000009,0.5792953000002714,4.508724959997088,87.91097067000054,0.5103297500000005,0.8465056500000507,0.31636970999998676,26.80078673999076,-18.037308279996108,-17.72484177000404,-49.00498845998129,17.30102055999323,4.799999999987493e-07,0.0,25.638254559991445,-17.99858773999756,-13.848443440003715,-48.53632956998168,20.01016728999271,-4.0000000000006546e-06,0.0,-24.0422299599946,-0.033161139999636755,1.3855633499995272
17.40000000000009,0.6215694499999513,2.9820545699975054,88.16506281000032,0.5103499499999998,0.8686203100000289,0.30882983999998653,22.36479740999338,-16.13416327999706,-19.50852199000235,-39.73959695998574,14.125544319995619,-8.000000000062454e-08,0.0,21.4016099299934,-16.605928949997583,-15.67508736000277,-39.34175989998558,16.62421870999531,-4.1000000000003716e-06,0.0,-21.09636204999492,0.05622463999990408,1.1240385599996188
17.45000000000009,0.4914279799996523,1.8868179499984084,88.24529698,0.5100714499999993,0.8786567900000095,0.3023076099999901,19.767430319997125,-15.038348369998841,-20.2972584400007,-33.953974599992975,12.546532589998394,-4.3000000000071194e-07,0.0,18.640327899996574,-15.447075449998282,-16.848880610001547,-33.33391349999237,14.962892879998437,-4.139999999999554e-06,0.0,-18.719154649996362,-0.07264841000031338,0.9833866199998603
17.500000000000092,0.29981661999971326,1.51169668000019,88.12714304999969,0.509640839999999,0.8814725400000031,0.2981489099999943,18.670498369998224,-14.735557019999833,-20.409801180000077,-31.632308129997526,12.11928237999963,-7.70000000000296e-07,0.0,17.090875219997343,-14.750281259999117,-17.537610750001175,-30.553191659996685,14.616282449999911,-4.0400000000000104e-06,0.0,-17.555294659999326,-0.31033591000038585,0.9600737500000263
17.550000000000093,0.2154335899998695,1.5600193599998395,88.05103538000006,0.508907879999998,0.8829233300000028,0.2959604399999971,17.823208809998633,-14.670272119999975,-20.718290060000992,-30.39488061999762,11.860779289999343,-5.999999999992787e-07,0.0,16.033228029998728,-14.405379279999448,-18.07115541000091,-29.128015069997808,14.629531399999875,-3.7399999999990282e-06,0.0,-17.37588952999969,-0.4051861899999325,0.9156005099997899
17.600000000000094,0.16189062999994064,1.3338789599996324,88.1118958300001,0.507749059999998,0.8839790400000017,0.29461466999999775,17.25047343999904,-14.635024999999864,-21.25386245000071,-29.14365295999792,11.527597329999567,-1.4999999999988514e-07,0.0,15.611330169999402,-14.14998151999961,-18.52628207000069,-28.09016967999849,14.386469189999607,-3.2699999999997353e-06,0.0,-17.118443969999618,-0.3805989699999135,0.8213767099998782
17.650000000000095,0.1337906499999364,1.1294331499996264,88.14162753000005,0.5067684299999984,0.8843890100000003,0.29347740999999794,16.907373209999612,-14.559743919999885,-21.416617399999957,-28.291379909998845,11.385961319999874,-1.1000000000048453e-07,0.0,15.466210089999972,-13.976627849999705,-18.724948980000047,-27.57324950999945,14.36251524,-3.0800000000008396e-06,0.0,-16.884896749999584,-0.35158163999998215,0.8066054800000038
17.700000000000095,0.11559810000001189,1.081003690000146,88.14929929,0.5059414699999984,0.8844565900000003,0.2924782899999984,16.63802756999932,-14.506425349999883,-21.323946799999852,-27.83229062999924,11.389275920000046,-4.7000000000039985e-07,0.0,15.400038789999742,-13.866527399999852,-18.684085369999785,-27.480944380000025,14.389751620000144,-3.3100000000006603e-06,0.0,-16.777016150000083,-0.339553129999921,0.8160025800000348
17.750000000000096,0.11163069000022584,1.1219736400000688,88.14796901000008,0.5052522199999991,0.8845523800000005,0.2920046799999997,16.358857139999273,-14.47752934999968,-21.349412950000566,-27.46839141999897,11.387984429999742,-5.700000000007065e-07,0.0,15.346692639999892,-13.797888190000103,-18.602100679999705,-27.527031229999896,14.493704950000048,-3.400000000000417e-06,0.0,-16.817160220000147,-0.3289027799997616,0.8366961300000852
17.800000000000097,0.17326163000013292,1.1048953999998914,88.15222600000004,0.5048919099999996,0.8847096200000003,0.29208321000000054,16.128126329999645,-14.380360499999764,-21.603958660000448,-27.036252599999127,11.270817829999698,-3.2999999999982447e-07,0.0,15.317158539999905,-13.837054900000073,-18.642847140000097,-27.43312894999953,14.502436099999773,-3.289999999999856e-06,0.0,-16.838234080000102,-0.25878256999981725,0.8997596600002432
17.850000000000097,0.1798597899999872,1.0357891599998856,88.17140922000011,0.5047090399999998,0.8847455400000002,0.29245916000000083,16.049829929999774,-14.341675199999916,-21.753520370000217,-26.73619316999935,11.200374499999803,-2.2999999999976415e-07,0.0,15.318635739999939,-13.812592019999867,-18.669545569999823,-27.25748225999952,14.485863149999886,-3.1299999999995635e-06,0.0,-16.85734038000001,-0.24326706999997566,0.9845676500002637
17.900000000000098,0.18358935000000196,0.9985929499999414,88.22089675000011,0.5047413100000003,0.8846840599999999,0.2930402500000016,16.047460220000104,-14.306315579999936,-21.731081079999825,-26.62566528999995,11.194821210000057,-2.8999999999998685e-07,0.0,15.32821512000009,-13.797694709999986,-18.58244349999973,-27.12514878999984,14.437946939999886,-3.179999999999532e-06,0.0,-16.994959640000445,-0.2266950399999782,1.0495056600000954
17.9500000000001,0.1757997699999678,1.0256566900000872,88.27856484000016,0.5049539000000007,0.88459176,0.2941708400000031,16.11401109000025,-14.297467790000042,-21.625246339999904,-26.693008460000332,11.242412710000105,-3.399999999999289e-07,0.0,15.379639470000228,-13.793468980000025,-18.418269839999695,-27.112587120000104,14.340934169999825,-3.180000000000209e-06,0.0,-17.37835635000108,-0.21584095000001077,1.1156008700000744
18.0000000000001,0.21975597000023853,1.0974418500001795,88.38051357000025,0.5055361100000015,0.8842123699999984,0.2964561300000062,16.388741660001,-14.310213720000009,-21.639445850000094,-27.122699130001585,11.296883850000311,-3.8999999999959827e-07,0.0,15.669383350001125,-13.92814872000058,-18.20316536999939,-27.418677540001404,14.309621470000247,-3.1199999999994263e-06,0.0,-18.13593234000196,-0.17972916999979296,1.1310800100000182
18.0500000000001,0.3801506200003781,1.2609002100005438,88.49065162000025,0.5065352800000027,0.8829406599999964,0.30058816000001043,17.135761240002033,-14.334086240000197,-21.552756039999686,-28.368823260003662,11.45984842000058,-4.699999999999385e-07,0.0,16.450788800002115,-14.339533160001071,-17.798068299998896,-28.50253276000323,14.34678586000025,-3.120000000000241e-06,0.0,-19.42563638000334,-0.06369959999974766,1.1564328300000546
18.1000000000001,0.5530768300002126,1.57090888000079,88.61473119000027,0.5080269700000035,0.8798051799999909,0.30719789000001585,18.731945530004356,-14.585938240000957,-21.118700159998554,-31.104239810007453,11.963449380001512,-7.100000000002322e-07,0.0,18.062134130004317,-14.976605600001387,-16.960581429997756,-30.962195050006756,14.604406930000783,-3.339999999999869e-06,0.0,-21.42025285000474,0.013413039999948794,1.168808319999957
18.1500000000001,0.5834726499998247,2.169896130001685,88.78297745000049,0.5098864200000035,0.8727410199999791,0.3164019100000208,21.483204660006837,-15.371912830002438,-20.122299109997456,-36.048580410012804,13.10557257000325,-1.1300000000003568e-06,0.0,20.846242920007,-15.730164180001562,-15.453446469996193,-35.57198618001206,15.322772110002433,-3.8200000000007884e-06,0.0,-24.277206330006756,-0.10084525000043756,1.0582652999994946
18.200000000000102,0.2111719499986113,3.2197105800026096,89.0412102600003,0.511489520000004,0.8583395799999604,0.3266990500000209,25.434346840009663,-17.12283855000469,-18.52933208999566,-43.60613650001841,15.229375880005389,-1.139999999998929e-06,0.0,24.62972694000835,-16.344134460001165,-13.587903579996729,-42.472838320016265,17.040104390004867,-3.979999999999168e-06,0.0,-27.827018670007597,-0.621786980001845,0.6525191199988631
18.250000000000103,-0.5673377700013832,4.501986550002372,89.09302566000007,0.5135926000000047,0.8335052199999374,0.33616603000001755,30.718338440011973,-19.6317186400052,-16.240680409995427,-53.365322420021265,18.40465252000754,-2.799999999971056e-07,0.0,29.160344120010738,-17.143668300002588,-12.342146109997845,-51.316363010020126,19.99685685000707,-2.779999999996612e-06,0.0,-31.361979730006475,-1.680291370002064,0.041876399998691624
18.300000000000104,-0.876717530000051,5.40601102000152,89.26830185000068,0.5157965500000039,0.7983565599999194,0.3434927300000126,36.85125834001304,-21.94785747000444,-14.299037849996298,-63.91001938002195,22.26573751000817,1.1100000000023604e-06,0.0,35.10735804001344,-18.81800372000388,-10.837891899995798,-61.60380698002191,23.659179740007655,-6.199999999952697e-07,0.0,-33.96488224000449,-2.212290250000349,-0.5661348600006099
18.350000000000104,-0.7433002499994328,6.182047370001859,89.68557374000079,0.5174423900000039,0.7569150499999119,0.3483188300000075,43.07679777001229,-23.887288260003285,-12.336657359995593,-74.43384617002107,26.111340320007713,2.2100000000008598e-06,0.0,41.74604733001342,-20.62886579000356,-8.33827043999406,-72.19540042002136,27.25053053000705,1.2500000000029884e-06,0.0,-35.97324709000408,-2.181508149999702,-0.5908721799996624
18.400000000000105,-0.5351724499997833,7.166344170002162,89.96190650000038,0.5194496400000043,0.7137671299999075,0.35089005000000384,48.861951950012156,-25.25780494000254,-9.931805799994248,-84.27052533002018,29.70566109000722,2.5100000000003025e-06,0.0,47.918627280012544,-22.104888000002585,-5.372023239993657,-82.08061610002008,30.622591430007034,2.3400000000017653e-06,0.0,-37.961795000004194,-2.1436640000002107,-0.31094291999927937
18.450000000000106,-0.535583280000142,8.291215750002815,89.98186674999981,0.5210158400000023,0.6704415399999085,0.3518935000000002,54.36314753001096,-26.42452213000245,-7.1201302599939265,-93.3192776600184,33.04363707000708,2.9800000000017405e-06,0.0,53.37734753001058,-23.222382330002212,-2.596907959994392,-91.10047481001841,33.81162717000659,3.440000000002606e-06,0.0,-39.93500147000436,-2.33695600000047,0.024339550000737536
18.500000000000107,-0.5617875800000162,9.917500440003877,89.81944722999964,0.5217154400000006,0.6283175399999118,0.3507561499999949,58.94510239000894,-27.443605920001836,-4.283845239993676,-101.56993139001692,36.313323370006565,3.5800000000011312e-06,0.0,57.775736500008435,-24.294365710002275,0.0029247900055195813,-99.41400932001704,36.82237951000627,4.830000000003428e-06,0.0,-42.08800814000452,-2.4818646900001418,0.38618925000062065
18.550000000000107,-0.6566105800004566,11.658509720003513,89.82626610000052,0.5214544299999981,0.5880832199999168,0.3472080299999902,62.99896721000835,-28.34781648000225,-1.18700320999316,-109.15826619001542,39.16517363000563,4.230000000001594e-06,0.0,61.56397283000774,-25.136873880001176,2.5580385600052984,-107.01661705001538,39.570735170005406,6.340000000003014e-06,0.0,-43.928849150003366,-2.4581407799997703,0.48332793999981816
18.600000000000108,-0.9273966700006772,13.336074590003635,90.15815842000073,0.5205040799999981,0.5506129399999236,0.34179865999998704,66.66349200000732,-29.39554338000213,2.0920606000070925,-116.04571286001391,41.62001717000488,5.030000000002249e-06,0.0,64.89192456000644,-25.625666210001036,4.961289910004917,-113.84114587001373,41.994590130004994,7.900000000003094e-06,0.0,-45.40748476000297,-2.346663899999903,0.3238828999997343
18.65000000000011,-1.2266194700004367,14.989185520003526,90.37010555000015,0.5197125799999986,0.5163221299999283,0.3355076599999862,69.95552188000686,-30.105027460000798,5.4677486500072785,-122.18963129001267,43.682356680003956,5.770000000000959e-06,0.0,67.68507991000584,-26.14483968000122,7.211365600005072,-119.91460424001261,44.15607404000435,9.370000000003173e-06,0.0,-46.66753607000261,-2.33169606999983,0.3578585200002241
18.70000000000011,-1.3257185100000681,16.41553575000271,90.39702360000017,0.5190907799999985,0.4855486899999366,0.32994386999998965,72.97423682000654,-30.118229879999408,8.664434240006798,-127.51137429001082,45.13439517000256,6.01999999999982e-06,0.0,70.387893660006,-26.544895660000353,9.61680555000545,-125.23924975001074,45.870449870003306,1.0350000000001797e-05,0.0,-47.79794636000244,-2.1463373399993464,0.4192344900001935
18.75000000000011,-1.4012750200002249,17.537993910002314,90.54322953000049,0.5183586099999986,0.4589611999999468,0.3262381799999938,75.74064329000551,-29.798490509999414,11.569851500005829,-131.9219055600086,46.166342850002096,5.999999999999749e-06,0.0,72.96104606000523,-26.42741749999934,11.971858930004878,-129.63474198000858,47.10783926000226,1.0840000000001106e-05,0.0,-48.99207624000287,-1.8505790399993864,0.30470349999919516
18.80000000000011,-1.4301341299999162,18.572888580002065,90.71252179000021,0.5179808900000004,0.4372129999999577,0.32423021999999724,77.94178915000438,-29.58579354999963,13.850938570004182,-135.38968065000665,46.982901010001626,6.24000000000083e-06,0.0,75.14502678000449,-26.141338919999644,14.130874980004522,-133.11138427000665,47.90591291000138,1.1390000000001372e-05,0.0,-50.407942450003155,-1.5785233399995378,0.049105089999641346
18.85000000000011,-1.419144630000117,19.451112340001732,90.80768340000033,0.5179813199999992,0.42079840999997037,0.3234669199999991,79.63777014000317,-29.606327140000648,15.499725320003177,-137.9044448700044,47.56706859000111,6.730000000001242e-06,0.0,76.83340100000292,-25.9528549199994,15.886353510003012,-135.6381258000046,48.38990850000081,1.202000000000101e-05,0.0,-51.85913204000307,-1.3424069099994413,-0.06493665000006363
18.900000000000112,-1.3184204199993472,20.20597018000183,90.75876799999936,0.5183648900000029,0.4114446599999891,0.3233444200000004,80.38581663999962,-29.82872744000023,16.241027619999812,-139.30826600000177,48.005040130001056,7.420000000000495e-06,0.0,77.63082487000023,-25.987971630000814,17.078988830002327,-137.05763760000167,48.64656977000051,1.2390000000000695e-05,0.0,-53.201127570003095,-1.14166202999971,-0.020426749998821478
18.950000000000113,-1.106770879999869,20.569145739999513,90.53776740999969,0.5194556100000022,0.41073886000000837,0.3235996300000007,80.10918032999942,-29.94437390000045,15.896236399998637,-139.46474721999886,48.09881730999966,7.740000000000717e-06,0.0,77.47741748999921,-26.216983610000295,17.551586199999463,-137.15011371999867,48.68321786999963,1.250999999999895e-05,0.0,-54.00255935000008,-1.0299184999999023,0.3510873900002692
19.000000000000114,-1.124576560000206,19.88853319999732,90.45151365999992,0.5201344300000009,0.4193104600000309,0.32411892000000186,79.5034656899981,-30.221671260000726,14.81166498999658,-138.13142212999514,47.84988555999885,7.67999999999876e-06,0.0,76.79027937999777,-26.288082430000067,16.638494549996388,-135.77761287999505,48.33276693999871,1.191999999999765e-05,0.0,-53.48917053999744,-1.031811590000135,0.4432210400002379
19.050000000000114,-1.321919560000557,18.30617353999588,90.4403748999998,0.520368410000001,0.43805167000005496,0.32530699000000374,78.40434291999625,-30.55676178000059,12.987038639994754,-135.17028964999133,47.05695816999774,7.169999999998219e-06,0.0,75.40297757999548,-26.347153210000418,14.350458099993428,-132.76572378999114,47.584596599997845,1.0749999999997358e-05,0.0,-51.88401088999568,-1.1048370700003756,0.4831525899998602
19.100000000000115,-1.7604227100014602,16.280266289994803,90.42654415000021,0.520108349999998,0.466940210000076,0.3272296100000048,76.35001033999461,-30.877067570000875,10.549086329994287,-130.5029603799875,45.905212879997016,6.069999999997797e-06,0.0,72.82118403999296,-26.358217119999413,10.761718429990408,-128.05854362998747,46.44318184999696,9.299999999996667e-06,0.0,-49.6825622299942,-1.3066498200005718,0.2941206699990839
19.150000000000116,-2.272439860000852,14.074725859995112,90.46593316000006,0.5194541799999987,0.5051091800000997,0.32914120000000363,73.00173736998984,-30.971304209999793,7.590818219991988,-124.17520926998323,44.31777393999593,4.949999999997592e-06,0.0,69.00453972998949,-25.97703275999865,6.521819269990243,-121.66351549998315,44.87393355999579,7.819999999996164e-06,0.0,-47.114054939993984,-1.5074658500002076,-0.004320860000294246
19.200000000000117,-2.497302850000276,12.079534469995465,90.5245081200001,0.5188573999999992,0.5510559500001149,0.3300495100000005,67.91314423998669,-30.709019859998854,3.829739529990565,-116.30168139998,42.33363343999468,3.86999999999719e-06,0.0,64.07991293998757,-25.10800656999749,2.5784267299912003,-113.77509018997992,42.784737079994464,6.069999999995217e-06,0.0,-44.53701465999387,-1.472005259999789,-0.10328120000026843
19.250000000000117,-2.5825471300002434,10.181771909995334,90.54276942000017,0.5189231100000009,0.6022366800001239,0.32927967999999574,61.926357369985695,-30.02056353999816,-0.2786178400096734,-107.2402064199776,39.67495586999284,2.7599999999972944e-06,0.0,58.45416132998649,-23.88149895999651,-1.0051072400079737,-104.57970278997699,40.124693679992966,4.249999999995267e-06,0.0,-41.85107975999321,-1.4482493700001058,-0.20044696000025303
19.300000000000118,-2.337633619998932,8.440992979996446,90.47619643999951,0.5194096400000016,0.65670146000013,0.3268448599999927,55.188512239983055,-28.79773760999627,-4.726169200010858,-97.04030759997468,36.262527839991414,2.0099999999979796e-06,0.0,52.36260823998487,-22.562228699997256,-3.9955874600064987,-94.23082306997453,36.8351764399916,2.2799999999958383e-06,0.0,-39.19119485999427,-1.2635881899993473,-0.1506545999993312
19.35000000000012,-1.9592800899991358,6.855750349996155,90.21966999999913,0.5204285500000033,0.7117025000001266,0.3227793099999884,48.052749139983575,-27.03376786999518,-9.175195770009896,-85.83476117997287,32.32459802999015,1.3199999999987486e-06,0.0,45.81695345998453,-21.34716476999725,-6.816577710006683,-82.91312526997255,32.920250379990065,3.8999999999560376e-07,0.0,-36.62753894999375,-1.1446100500000087,0.20597210000108523
19.40000000000012,-1.482629409998616,5.148708759995768,89.72640114999867,0.5217610400000028,0.7630844300001164,0.31702641999998415,41.29270500998435,-24.62845141999355,-13.098287840008727,-74.07467549997145,27.93415630998904,8.499999999986851e-07,0.0,39.33897461998485,-20.233761159997457,-9.515169490006173,-71.0561420899714,28.550367319989174,-1.2500000000041554e-06,0.0,-33.798246279992796,-1.0487183199994037,0.7330464100011653
19.45000000000012,-0.8195424999983391,3.3508592299957516,89.16770725999858,0.5225129600000009,0.8069229700000945,0.3096422599999801,35.123930019985906,-21.77540266999284,-16.45116623000709,-62.34399139997228,23.462904449989495,2.099999999984946e-07,0.0,33.38304185998625,-19.27029154999783,-11.947651610005725,-59.472881329973,24.10867595998961,-2.910000000003519e-06,0.0,-30.649726489992158,-0.6192358999987431,1.1307014400010083
19.50000000000012,-0.18074018999859806,1.7258066499963713,88.44824703999814,0.5228270100000001,0.8405014500000673,0.300535109999976,29.83140194998837,-18.78568041999314,-18.565730360003805,-51.57913970997589,19.254345499990713,-1.199999999998969e-07,0.0,27.937157869987765,-18.499817609998296,-14.44979896000611,-49.00167246997683,20.159768579991496,-3.970000000002332e-06,0.0,-27.368485519991953,-0.11930800999875102,1.3772987600006068
19.55000000000012,0.3714947900012624,0.25627673999656053,87.5741150699979,0.5228235299999994,0.8624771000000399,0.2900387599999738,25.623569719991256,-16.0875778799941,-19.647714850001847,-42.538490219980645,16.064310909993885,-3.0000000000028935e-07,0.0,23.39097241999043,-17.898678099998676,-16.902089250005407,-40.41353070998183,17.33740626999491,-4.370000000000319e-06,0.0,-23.927461319991508,0.36165985000129103,1.6166556200006015
19.600000000000122,0.7097955000005126,-0.9866439100025287,86.69382935999803,0.5221400399999975,0.8746750700000205,0.27902161999997344,22.4979738199935,-14.076748699996129,-20.01850332000021,-35.63014021998596,14.138527669996666,-3.7000000000041145e-07,0.0,19.786018709992284,-17.234378309998196,-19.042905820004513,-33.84555079998651,15.847891209997762,-4.480000000000329e-06,0.0,-20.570205299992388,0.7868898800009598,1.8612812200005764
19.650000000000123,0.9211431700004882,-1.970017660002111,85.98229750999859,0.5207454499999961,0.8802915400000085,0.26835884999997445,20.2818433599953,-12.758033769997443,-20.094226740000366,-30.777102529990067,13.15945452999843,-4.40000000000423e-07,0.0,17.202383859994757,-16.639746509998783,-20.696642980003404,-29.316805929991038,15.360764659999637,-4.339999999999016e-06,0.0,-17.576844179993113,1.2402233800011682,1.9721672800000543
19.700000000000124,1.029572700000105,-2.6646445500012175,85.54596917999925,0.5188165199999951,0.8823959900000032,0.25867611999997725,18.574391199995922,-12.018246319998735,-20.281468700000648,-27.378761649992796,12.769175769999597,-3.500000000000098e-07,0.0,15.416099439995985,-16.135667399998738,-21.85194208000247,-26.398517359994095,15.456642390000797,-3.889999999998579e-06,0.0,-15.125451479994773,1.708282330000952,1.960499799999889
19.750000000000124,0.9759799699995455,-3.1376645000014625,85.35035777999974,0.5168379799999951,0.8827835999999989,0.2501153799999803,17.2262711699978,-11.734994799999894,-20.543839070000477,-24.99696319999542,12.769224920000271,-7.999999999999139e-08,0.0,14.188940039998265,-15.61322966999862,-22.638500320001512,-24.562072519996796,15.93480120000102,-3.3199999999991466e-06,0.0,-13.162037219995092,1.9834671800004795,1.88412286999982
19.800000000000125,0.7389950799992392,-3.415055060000637,85.30623224000007,0.5151438199999963,0.8824722399999991,0.24250345999998255,16.205336879997922,-11.830091810000544,-20.712447950000232,-23.50185678999707,13.022968310000756,9.999999999738337e-09,0.0,13.366286739998525,-15.041314249998512,-23.179600740000918,-23.555384379998284,16.258772930000596,-2.929999999999748e-06,0.0,-11.652005759996582,2.0236568499999525,1.756753799999792
19.850000000000126,0.4728840599996249,-3.482488990000144,85.36461507000026,0.5138127699999975,0.8822438399999989,0.2358612899999849,15.340198799998436,-12.071023060000448,-20.854469830000387,-22.627609609998892,13.360684220001128,-7.000000000043849e-08,0.0,12.703136849998998,-14.517145409999275,-23.458005590000333,-23.028852669999736,16.484532310000898,-2.8799999999999813e-06,0.0,-10.58106405999761,1.9688426100000895,1.6484390999999383
19.900000000000126,0.36468925999991286,-3.4975271300000235,85.5314779900004,0.5129008599999983,0.8818891099999991,0.23035399999998754,14.789500989999055,-12.247257820000328,-21.079955400000575,-22.362993519999996,13.70495030000086,-2.2000000000049685e-07,0.0,12.356111059999368,-14.26985561999972,-23.452440910000167,-22.970933350000173,16.76220997000073,-3.010000000000101e-06,0.0,-9.787697979998319,2.0518197300003744,1.6163886400000376
19.950000000000127,0.32890266999989054,-3.4665138799998694,85.70757888000043,0.5122981199999989,0.8817549400000001,0.22597564999999006,14.416561019999095,-12.392788060000356,-21.409332160000897,-22.379094630000072,13.94467283000051,-2.500000000004999e-07,0.0,12.059086549999131,-14.137975619999652,-23.51808823000035,-22.941149909999687,16.90765829000024,-3.1099999999998656e-06,0.0,-9.267643409998982,2.1776509600002174,1.7278699000005395
20.000000000000128,0.2778396099998864,-3.491116810000191,85.91774673000063,0.5119741899999994,0.8816719199999996,0.2226837699999933,14.170112389999558,-12.524488780000263,-21.76056659000078,-22.41513683000006,14.1620111400007,-2.499999999993828e-07,0.0,11.84485897999975,-14.004873259999751,-23.616004570000257,-22.791841109999673,16.979932380000193,-3.0199999999985726e-06,0.0,-8.875148709999138,2.2081227200000337,1.8619968300001708
20.05000000000013,0.2333706600000913,-3.567055890000187,86.22491661000078,0.5118586600000002,0.8815419799999995,0.22078823999999705,14.052684599999864,-12.631767080000017,-22.049725230000604,-22.474463460000255,14.334104380000474,-3.300000000005082e-07,0.0,11.78619865000003,-13.888342160000008,-23.547786329999752,-22.5875673799996,16.925241459999857,-2.9699999999993994e-06,0.0,-8.633387749999713,2.1690828700000395,1.8880199199998975
20.10000000000013,0.20939043999987492,-3.609607159999967,86.59399684000091,0.5117785799999999,0.88144209,0.22039750000000088,14.041781960000016,-12.743198320000353,-22.333676650000598,-22.632087470000492,14.44304626000021,-4.600000000006442e-07,0.0,11.87152927000029,-13.798694579999742,-23.256406779999153,-22.471517839999876,16.828857519999666,-2.9100000000000852e-06,0.0,-8.675877190000538,2.119665009999698,1.7343075899995664
20.15000000000013,0.18310084000008017,-3.5831784100000794,86.95400808000103,0.5119033800000008,0.8814186499999996,0.2214486100000046,14.084782060000364,-12.849731330000129,-22.59290177000098,-22.83741948000057,14.508543820000193,-4.800000000000282e-07,0.0,12.073835110001092,-13.753415510000153,-22.887127299998806,-22.518248140000594,16.688231999999875,-2.9199999999995396e-06,0.0,-8.998435400000911,1.9978289799998477,1.5618526199995078
20.20000000000013,0.19981196999996947,-3.6262171000000896,87.2676447600007,0.5121993700000008,0.8812914799999998,0.22369869000000725,14.283023420000657,-12.886514260000176,-22.859912200000522,-23.02322092000053,14.527849790000012,-5.499999999998226e-07,0.0,12.532823120001359,-13.818382090000139,-22.51277372999906,-22.773088260000883,16.555073319999597,-2.920000000000181e-06,0.0,-9.377939800001132,1.914164559999702,1.5028521600000495
20.25000000000013,0.16717118999995556,-3.6254732699996857,87.49428599000049,0.512532690000001,0.8811892500000003,0.22693978000000972,14.595116080000722,-12.982349740000249,-22.949391010000078,-23.310931490000975,14.510605309999839,-5.399999999999684e-07,0.0,13.079687220001281,-13.873330470000244,-22.174142959999152,-23.190039930001323,16.370916629999524,-2.9600000000001275e-06,0.0,-9.89109161000184,1.767252839999615,1.577764810000306
20.300000000000132,0.15539504000007695,-3.3377720899987935,87.64015837000031,0.5129127900000012,0.8814011200000011,0.23131137000001373,14.834074500000638,-13.100730510000304,-22.912389739999778,-23.83386464000196,14.435988399999825,-5.400000000006118e-07,0.0,13.486213420000972,-13.991659450000519,-21.864356479999138,-23.813545410002106,16.181129349999562,-3.0400000000002945e-06,0.0,-10.866338290003409,1.6151081599996655,1.6997918300003219
20.350000000000133,0.2719314100005136,-2.6979800599979127,87.72678724000015,0.5134087400000016,0.8818353300000014,0.2377149200000204,15.126690280001052,-13.17476913000012,-22.756547469999425,-24.85507314000349,14.331356299999634,-6.59999999999634e-07,0.0,13.892505180001358,-14.336810640001318,-21.475582999998807,-24.892453750003725,16.02582060999959,-3.270000000000295e-06,0.0,-12.555547980005484,1.549309399999965,1.8167490400002988
20.400000000000134,0.5089916800006635,-1.791510869997389,87.74476085999999,0.5139605700000014,0.8821945600000001,0.24695543000002934,15.671611400002089,-13.236402790000337,-22.512375199999326,-26.455164290005165,14.135435419999347,-8.000000000002117e-07,0.0,14.606446340002762,-14.949516500001923,-20.907484559998228,-26.693981320006102,15.869895189999554,-3.530000000000633e-06,0.0,-15.027551350007668,1.5268061599998926,1.9300595100002007
20.450000000000134,0.8942974900014087,-0.8724735599981861,87.73065912999998,0.5146298100000017,0.8812329299999933,0.25956954000003923,16.89575865000538,-13.288415830000064,-22.132139239998605,-28.885297050008372,13.968865709999681,-9.700000000005572e-07,0.0,16.195629050006758,-15.91488348000336,-19.896987919996228,-29.613654710010188,15.83883143000033,-3.9800000000015314e-06,0.0,-18.091508370008285,1.551563370000503,2.000468820000281
20.500000000000135,1.4142861700014522,-0.1815410899984417,87.61836392999952,0.5150765500000004,0.8762935199999783,0.27555640000004666,19.601765750009818,-13.526684220001142,-21.35985407999688,-33.071161920014596,14.188383810001657,-1.220000000000714e-06,0.0,19.288356840010618,-17.288041700004094,-18.300660049994697,-34.27942652001543,16.30185603000239,-4.450000000001333e-06,0.0,-21.45564723000927,1.6882786500003382,2.147981530000594
20.550000000000136,1.7738933300003632,0.3929076400017458,87.39959399999934,0.5147797499999982,0.8636385999999517,0.29317117000004667,24.184818420014725,-14.424892310003859,-19.80950194999475,-39.98822474002283,15.42982375000526,-1.3399999999997176e-06,0.0,23.89115869001387,-18.701922130003418,-16.02679279999313,-41.05860142002119,17.82499652000617,-4.8000000000003725e-06,0.0,-24.903139090009233,1.65211609999928,2.3272381300002247
20.600000000000136,1.5598085399987889,1.2138475400024846,87.14422373999956,0.5140949699999988,0.8398356099999194,0.30917480000003933,30.236499520017695,-16.444439460006702,-17.56744014999377,-49.693292370028914,18.096306510008983,-6.399999999973655e-07,0.0,29.34465385001596,-19.80973388000301,-13.686459899994215,-49.921255530026656,20.782718340009435,-4.2799999999967725e-06,0.0,-28.198424940008145,0.9966685799976376,2.196248629998972
20.650000000000137,1.2015311099994288,2.2016242500030025,87.24820627000106,0.5134975799999977,0.8045532799998892,0.32205452000003093,36.844241150017965,-19.141609280007987,-15.670298289995978,-60.78377357003116,21.83520628001132,8.200000000048265e-07,0.0,35.80325315001896,-21.21110188000462,-11.569775419993972,-60.594044460031064,24.449413880010585,-2.3499999999940097e-06,0.0,-30.918481990006804,0.37871470999919116,1.578338209998353
20.700000000000138,1.056261369999817,3.348497720003391,87.64053838000108,0.5126236899999976,0.761474189999874,0.33178521000002276,43.471241320018386,-21.83372099000654,-13.641201229992802,-72.09466774003103,25.659253690010047,2.4000000000036565e-06,0.0,42.67929493001884,-22.87173393000433,-9.221766449992677,-71.7945067400306,28.234540050010533,-1.699999999946437e-07,0.0,-33.21366082000594,0.18644710999973116,1.0401904499989554
20.75000000000014,0.9841213799997957,4.7961215300048465,88.0639804700013,0.5116954599999974,0.7152453999998711,0.3381795300000124,49.68599568001582,-23.85670544000471,-10.681820959990944,-82.83969744002863,29.274211460009887,2.9399999999998816e-06,0.0,49.05964115001616,-24.056228430002346,-6.238875219991044,-82.4522184200284,31.98672326001017,1.230000000003379e-06,0.0,-35.38369270000631,0.14382887000002448,0.7746054499994461
20.80000000000014,0.7914253499992387,6.7031546700055715,88.47096274000094,0.5107249599999975,0.6686286099998704,0.3411611900000048,55.12508249001447,-25.414449470004115,-7.155715779989924,-92.78519435002653,32.77613876000953,3.0400000000003643e-06,0.0,54.43364856001387,-24.740565420001808,-3.169625929992069,-92.31464773002631,35.48702286000927,2.3900000000033187e-06,0.0,-37.61702710000594,0.06286878999958284,0.5552585599993678
20.85000000000014,0.4601428799989751,8.80051670000605,88.79220824000089,0.509708429999997,0.6220703299998724,0.3418291999999991,60.124644950013135,-26.950370940004312,-3.5237769699899513,-101.9713686000243,36.130751420009084,3.680000000001803e-06,0.0,59.12297653001214,-25.414554660001855,-0.47759220999280017,-101.45253249002428,38.72449883000855,3.890000000004777e-06,0.0,-39.678029140005584,-0.10169504000043722,0.30191598999915864
20.90000000000014,0.1493143499993459,10.892430510005507,89.14257930000099,0.5086993399999973,0.5770229799998747,0.3406378099999946,64.77569681001323,-28.25277879000281,0.21456638001096037,-110.33083009002263,39.074237220007326,4.520000000002339e-06,0.0,63.4477036300124,-25.97931601000122,2.2666197900083223,-109.82293672002274,41.588223040007506,5.6300000000042295e-06,0.0,-41.53151644000474,-0.15801035999984375,0.003309889999235439
20.95000000000014,0.051005930000154756,12.721283710005277,89.40177128000033,0.5077118599999972,0.5339182199998806,0.3383177299999927,69.37796161001265,-28.8760485100007,4.088903150011007,-117.92209458002063,41.35644786000557,5.320000000001834e-06,0.0,67.84094534001224,-26.345692200001004,5.402712530009523,-117.49006988002097,44.00538311000614,6.950000000003727e-06,0.0,-43.12286357000472,-0.00035193999927732485,-0.14223967999997222
21.000000000000142,0.24997025000076817,14.73803111000603,89.40581022999982,0.5068638399999983,0.4934546799998902,0.3356036899999921,73.4392997900105,-28.91377564999975,7.803776980010079,-124.79163724001833,43.013079190004355,6.270000000003972e-06,0.0,71.85106217001058,-26.66868499000065,8.93736399001034,-124.50413220001874,45.98072710000485,8.050000000002588e-06,0.0,-45.012557270005914,0.2992972800007675,-0.029292239999492934
21.050000000000143,0.513585820000914,16.831271180005903,89.20286131999912,0.5066794000000003,0.4570317199999034,0.3329200699999927,76.902650300009,-28.645035829998776,11.19259372000899,-130.7647747600156,44.39241805000324,7.300000000002237e-06,0.0,75.24752073000872,-26.850057210000315,12.527882360010258,-130.5971618700159,47.479097850003846,9.040000000002295e-06,0.0,-47.15458070000629,0.41635375000017844,0.21450187000079585
21.100000000000144,0.9241123800014384,18.950579060005975,88.90675837999927,0.5067699300000006,0.4262188599999225,0.330391279999993,79.51918866000577,-28.282333789999196,14.013401990006816,-135.6833361600123,45.32052159000225,8.280000000003084e-06,0.0,77.83472333000604,-26.759733069999328,16.12180374001003,-135.62519125001256,48.707571410003105,9.920000000002734e-06,0.0,-49.43934306000643,0.5634238800006462,0.4452781000006654
21.150000000000144,1.5011777200017336,21.064993530005516,88.59047282999911,0.5074718200000032,0.40325573999994546,0.32810805999999393,80.79148497000216,-28.00826678999934,15.859854020003814,-139.34897160000872,46.06510945000206,9.17000000000191e-06,0.0,79.3112574000031,-26.593309799999517,19.450701870008846,-139.3254684900087,49.63980296000214,1.094000000000303e-05,0.0,-51.727837340006005,0.7599579000005342,0.749580680001174
21.200000000000145,1.8455690400003038,22.4690527900026,88.50988715000014,0.5081498100000019,0.38884421999997243,0.32622866999999534,81.43065115000138,-28.055208680000632,16.984940670002384,-141.63426816000444,46.69666499000161,9.780000000001268e-06,0.0,80.10084588000139,-26.225973579998946,21.707401560004126,-141.5822415600043,50.146285070000644,1.1480000000000466e-05,0.0,-53.258843730002916,0.9118796900001126,0.9817328600004284
21.250000000000146,1.917224359999962,22.80714926999925,88.47843844999991,0.509258260000004,0.3853439900000082,0.32504971999999843,81.51656364999918,-28.14967734000036,17.126265779998338,-142.27703921999912,46.96581577000002,9.769999999999496e-06,0.0,80.26611996999932,-26.18994353000037,22.41251830999967,-142.1120774399986,50.13869230999952,1.1579999999999401e-05,0.0,-53.7158851199997,0.8525374199996213,1.1543733300006067
21.300000000000146,1.6071955699983944,21.71215383999492,88.62185183000076,0.5103668000000022,0.3939569900000422,0.32501757000000114,81.35030812999912,-28.35760340000103,16.264197929996474,-141.05860772999375,46.67671680999864,9.089999999997504e-06,0.0,79.79563180999779,-26.2498968400003,21.213721669993475,-140.62516065999307,49.85133046999844,1.1259999999997836e-05,0.0,-52.72930432999501,0.6410251899992274,1.231285299999603
21.350000000000147,0.8605818899976104,19.48285842999276,88.9335250400008,0.5107199700000005,0.4140752700000755,0.3257424800000034,80.77819696999663,-28.875849540001717,14.709100529994101,-137.9798158099883,46.03682469999772,8.109999999996944e-06,0.0,78.62771708999472,-26.45076474000105,18.03108469998853,-137.35823967998783,49.04016281999709,1.021999999999634e-05,0.0,-50.42426171999227,0.3045961599988543,0.9139984099987213
21.400000000000148,0.1889542299979737,17.031212819992795,89.09000556000026,0.5109298300000011,0.44554675000010896,0.3271770600000041,78.57677217999087,-29.376920210001188,12.01688448999083,-133.05114358998281,45.12724275999699,6.859999999996091e-06,0.0,76.00495325998955,-26.922611320001412,13.804425659986176,-132.2879595699823,47.87826315999614,9.039999999995809e-06,0.0,-47.68904385999147,-0.0027434000010628876,0.6065110199997066
21.45000000000015,-0.5070830300020034,14.77874801999385,89.18227619000027,0.51113924,0.48647116000013463,0.3280203300000007,74.62051533998552,-29.742313120000855,8.674335249989232,-126.50378671997814,44.052310949996354,5.589999999995937e-06,0.0,71.61632173998434,-27.178396959999905,8.902108649984928,-125.58499668997774,46.42261194999511,7.889999999996416e-06,0.0,-44.79391988999138,-0.3574777200009424,0.38402503999922893
21.50000000000015,-1.0034986800011987,12.871834989994518,89.25959327000027,0.5111404000000004,0.5351474400001548,0.3274419099999957,68.97559885998143,-29.76239243999938,4.772569849987794,-118.46519482997398,42.45257837999418,4.459999999997085e-06,0.0,65.77908474998125,-26.83333127999783,4.065242319986166,-117.38919307997344,44.54594850999355,6.629999999995776e-06,0.0,-41.86943408999089,-0.5512395100004931,0.08556100999897748
21.55000000000015,-1.309970530000429,11.03798083999455,89.35767381000022,0.5114256500000013,0.5895130500001684,0.32502943999998984,62.39511835997929,-29.34270486999783,0.5240979399868112,-109.11477582997023,40.03269174999148,3.5099999999972703e-06,0.0,59.27125565998011,-25.763419009996074,-0.28723975001191887,-107.80796657996952,41.99363584999143,5.129999999994859e-06,0.0,-38.676291279990025,-0.7000005600001935,-0.3343327600013458
21.60000000000015,-1.2373553599994143,9.362647179995248,89.37996675999986,0.5120863100000024,0.647495790000176,0.32082321999998537,55.027397709977194,-28.233536329995843,-4.030582620013886,-98.52849259996658,36.72399708998922,2.749999999998657e-06,0.0,52.379120709978906,-24.383895219995633,-3.9012944500100097,-97.00055678996605,38.73211199998912,3.379999999995592e-06,0.0,-35.41562982999038,-0.6423167899996587,-0.6092493400003197
21.65000000000015,-1.014881539998996,7.723722469994708,89.20864677999903,0.5129126400000029,0.7062877800001772,0.31541480999998217,47.41764628997703,-26.553853309993702,-8.576485220013588,-86.75151839996236,32.73674088998665,2.009999999997595e-06,0.0,45.24190852997835,-22.864222219995472,-7.179789230009619,-85.08915056996217,34.720763639986664,1.5199999999954468e-06,0.0,-32.137585259989706,-0.5710862599996803,-0.611231689999589
21.700000000000152,-0.47138527999775826,5.902158119994172,88.74595750999822,0.5138500100000033,0.7620911100001617,0.30911859999997937,40.056023219978194,-23.973681289990573,-12.829569540012065,-74.00811869996008,28.0364645499848,1.3399999999979649e-06,0.0,38.315183309979446,-21.544452689996454,-10.123441660008428,-72.42700603996079,30.06599261998504,-3.600000000058625e-07,0.0,-28.65249851998897,-0.28972267999866774,-0.3090140199986531
21.750000000000153,0.2612693000019675,4.061575309994614,88.15715955999828,0.5148427000000022,0.8107307600001336,0.3016982299999751,33.12879338997961,-20.70158938998989,-16.317870020009114,-60.89928906996022,22.99210631998479,6.699999999982951e-07,0.0,31.68070326998009,-20.361504379996134,-12.795740250008201,-59.651459509961526,25.12698288998513,-2.0900000000054412e-06,0.0,-25.042184209988925,0.19400511000139242,0.19371262000102538
21.800000000000153,0.8341670900014925,2.328822729994645,87.62925909999854,0.5154893900000018,0.8483080600000947,0.29268919999996995,26.89534916998249,-17.449018759990487,-18.74492325000608,-48.34776548996346,18.220582969986708,2.5999999999992265e-07,0.0,25.54055682998286,-19.11074953999633,-15.48434824000839,-47.632249279965684,20.493987029986933,-3.5000000000032415e-06,0.0,-21.32573154998809,0.6242392300013812,0.591070290001319
21.850000000000154,1.223655780000732,0.5332901499943721,87.18904211999875,0.5158332100000007,0.8722070400000519,0.2823838199999679,21.84554693998706,-14.599198549992392,-20.357950720003668,-37.336082309969946,14.529620409991026,1.699999999999373e-07,0.0,20.593579889987186,-17.89872904999623,-18.047155260007298,-37.388686159972195,16.95033702999159,-3.87e-06,0.0,-17.250576369987044,1.0584995700009994,1.0482518100012117
21.900000000000155,1.220810059999431,-1.2330536900051983,86.76562279999861,0.5158081599999995,0.8828912500000159,0.27241869999997176,18.6058900499932,-12.713659949995956,-21.095692970001107,-29.187752539980362,12.453389809996148,1.9999999998685915e-08,0.0,17.230603559992186,-16.592989529996046,-20.10700672000524,-29.760354479980997,15.02155413999663,-3.7499999999983115e-06,0.0,-13.094601159987581,1.1627531099996984,1.4675334400012439
21.950000000000156,0.9554112399993478,-2.4687495200023015,86.27846631999853,0.5154294899999985,0.8846098899999988,0.2644905799999788,17.04520695999624,-11.918798339998492,-21.181752889999906,-24.636880819990406,11.930164270000061,-2.100000000014562e-07,0.0,15.152394879994326,-15.472308899997312,-21.54936920000367,-25.0957100399893,14.66070373000063,-3.4299999999988575e-06,0.0,-9.805052889992261,0.9775190199994814,1.8668985800010773
22.000000000000156,0.9408174400005854,-2.9115834600006854,85.98236253999976,0.5146846799999969,0.8835904299999966,0.2587615799999845,15.966092069996604,-11.480763389998573,-21.245751640000876,-22.38657530999453,12.118477250000598,-3.9999999999958933e-07,0.0,13.64275884999614,-14.932231649999277,-22.333065140001466,-22.521535909994086,15.051250540001362,-3.0199999999983617e-06,0.0,-7.96920185999599,1.0125903300007093,2.104358740000135
22.050000000000157,1.109954560000309,-3.0818116700001505,86.09670195000079,0.5134597899999959,0.8827542599999988,0.25465140999998986,15.223088419998673,-11.22794233000001,-21.541005510000996,-21.34057530999905,12.291653960000396,-1.6999999999947544e-07,0.0,12.821256419998392,-14.757733499999476,-22.48550742999981,-21.21474224999768,15.407472680000723,-2.6199999999984333e-06,0.0,-6.952213489997823,1.2257223800003005,2.0452046899994363
22.100000000000158,1.074896519999073,-2.998645749999267,86.34914582000094,0.5122248999999961,0.8828249200000018,0.2521954599999941,15.051056989999934,-11.47015176000198,-21.7701958300008,-21.598998100002294,12.405406800000655,-1.4999999999987487e-07,0.0,12.502017359999003,-14.538324899998432,-22.37482742999942,-20.9442226499996,15.526695099999973,-2.51000000000058e-06,0.0,-6.562920139999882,1.126733419998592,1.8612963799987916
22.15000000000016,0.9287948899995973,-2.81027825999935,86.59562669000077,0.511243189999997,0.8831836300000003,0.25062572999999555,14.945255529999452,-11.838857990001031,-21.985675210000615,-22.04500071000112,12.518265520000567,-2.000000000006345e-07,0.0,12.398214349999837,-14.310225789999432,-22.25175385999953,-21.137967900000998,15.591048350000484,-2.4799999999998102e-06,0.0,-6.521126930000131,0.8602833499992738,1.6822666099994417
22.20000000000016,0.8325840399997761,-2.569062519999323,86.76579873000024,0.5103132199999971,0.8830361599999992,0.24928302999999566,14.713228719999174,-12.10859658000062,-22.087409950000033,-22.33837715000046,12.751354110000696,-3.5000000000021614e-07,0.0,12.289859189999552,-14.176176479999715,-22.14706259000003,-21.47867047000097,15.822951420001019,-2.4799999999992097e-06,0.0,-6.636596670000241,0.677928959999588,1.510322289999631
22.25000000000016,0.6928208399995514,-2.34450901999959,86.6777807099994,0.5095380599999982,0.8829302,0.24789316999999608,14.457751609999606,-12.331861580000592,-21.940178819999336,-22.416103200000176,12.923505310000198,-3.8999999999970113e-07,0.0,11.974114929999013,-13.998900749999411,-22.35738822000084,-21.58286888999984,16.093645210000325,-2.460000000000615e-06,0.0,-6.724175409999887,0.496918719999527,1.5475273300005385
22.30000000000016,0.6498468699999492,-2.3140665399998572,86.43060815999911,0.5093630800000004,0.8829466700000005,0.2471933999999997,14.446167730000122,-12.350143849999887,-21.720825009999185,-22.386754279999984,12.92074713999993,-3.399999999998836e-07,0.0,11.83029312999951,-13.974879430000044,-22.62648249000087,-21.62339021999996,16.218334720000026,-2.5900000000006905e-06,0.0,-6.720296960000787,0.38294422999969746,1.7821319200013443
22.35000000000016,0.7238828200003229,-2.2395849899997606,86.2212683499995,0.5096345800000013,0.8830242500000001,0.24771244000000345,14.497265770000304,-12.239618369999585,-21.55192541999963,-22.45071058000036,12.860887999999816,-2.9999999999967033e-07,0.0,11.830927800000278,-14.133455630000654,-22.75747415000013,-21.841927140000866,16.240518230000063,-2.6399999999996507e-06,0.0,-7.075502250001598,0.3366395399999066,1.887086030000365
22.400000000000162,0.8375499300004816,-2.232035570000299,86.16829624000022,0.5101805500000022,0.8828976299999989,0.24921786000000626,14.67956557000095,-12.102549229999457,-21.529078720000303,-22.60502807000061,12.819717960000064,-2.3999999999994635e-07,0.0,12.113139300001802,-14.382727320001086,-22.676911129999382,-22.21581647000181,16.244366560000273,-2.639999999999528e-06,0.0,-7.60639356000171,0.29496225000002,1.8915388099996595
22.450000000000163,0.871000910000032,-2.2864674900000552,86.22822094000031,0.5107846000000024,0.8827158600000004,0.2513295500000078,14.977172110000858,-12.0635814699999,-21.55488309999984,-22.81748303000062,12.77993809999954,-3.000000000009146e-07,0.0,12.565899340001273,-14.542190670000355,-22.480152299999336,-22.6099085300009,16.11741888999897,-2.7200000000002323e-06,0.0,-8.223536730002332,0.15141723999934675,1.7752009899996466
22.500000000000163,0.9074659500001473,-2.216632669999412,86.34343289000032,0.5115492100000025,0.8827039300000001,0.25437502000001244,15.318618660001373,-12.060814000000114,-21.565952839999856,-23.255858740002232,12.731769339999856,-4.200000000007547e-07,0.0,13.085206210001864,-14.74401805000085,-22.221126759999215,-23.198691790002638,15.909573969999457,-2.840000000000285e-06,0.0,-9.205547140004114,-0.027559490000614587,1.6241971899994971
22.550000000000164,0.9216461600000451,-1.8662684399983585,86.36055902999979,0.5122961300000027,0.8828294100000007,0.25933180000002076,15.853267740002265,-12.194901070000618,-21.419531909999158,-24.270324980004467,12.649945689999628,-5.400000000007756e-07,0.0,13.704835420002468,-15.041532480001251,-22.064177509999475,-24.320427890004993,15.743552069999327,-3.0500000000004625e-06,0.0,-10.891632480006955,-0.2481539000008054,1.5338590199999014
22.600000000000165,0.9659516100002643,-1.2908488899983195,86.19990653999933,0.5132434000000033,0.8826730599999975,0.2674372800000326,16.896966870005073,-12.423937130000928,-21.023098309998524,-26.13171073000783,12.518640389999295,-6.40000000000573e-07,0.0,14.835787860005746,-15.597015750002537,-21.77269504999853,-26.482275200009607,15.475026749998936,-3.50000000000153e-06,0.0,-13.404758780008947,-0.49644904000053286,1.5590267900003305
22.650000000000166,1.167181480001023,-0.7694723899984952,85.97098204999921,0.5144192600000043,0.8806841599999877,0.2790643100000436,18.983677690009163,-12.696188600001097,-20.414861849997926,-29.290458830013467,12.399876550000085,-7.700000000006893e-07,0.0,17.173371650010207,-16.660483810004575,-20.93967933999623,-30.224509210015533,15.287135809999992,-4.220000000003078e-06,0.0,-16.40145547001039,-0.6058533300001608,1.6927678500005898
22.700000000000166,1.5217672600011727,-0.39310630999878476,85.81054917999975,0.5155902700000033,0.8740475799999664,0.2928496900000472,22.411005330013655,-13.175771910002467,-19.668744859997165,-34.3490048300207,12.862393650003288,-7.899999999988105e-07,0.0,20.97940316001482,-18.21369238000552,-19.36198063999343,-35.81463914002164,15.656323400002846,-4.950000000002571e-06,0.0,-19.481740790010107,-0.5496243699996498,1.8560745900004714
22.750000000000167,1.707749829999946,0.12495361000229174,85.78276111000017,0.5163794100000019,0.859484959999935,0.3065545500000438,27.04334145001703,-14.368606010005648,-18.64170025999614,-41.77070197002858,14.539418390008231,-4.199999999975306e-07,0.0,25.697818870016555,-19.768360740004706,-17.234724499992538,-43.021187610026416,17.186377290007663,-4.989999999998398e-06,0.0,-22.44819622000953,-0.594889770000786,1.9453493199999476
22.800000000000168,1.5646731699993366,0.8833050200025657,85.93855719000109,0.516885670000002,0.8347589999998996,0.318825440000038,32.54192492001949,-16.455996110008183,-17.45069437999658,-51.18000030003375,17.695897000012597,8.000000000057863e-07,0.0,31.05650164001974,-21.160162470004728,-14.984535749991835,-51.69774348003159,20.15697920001139,-3.919999999994795e-06,0.0,-25.00898008000739,-0.920289830001049,1.758187129999028
22.85000000000017,1.5484367500004437,1.6341980000028176,86.42663393000208,0.5177621400000044,0.7994430799998666,0.32893502000002883,38.670525280020826,-18.936565660008434,-16.406566719996455,-61.82364314003699,21.71746411001439,2.5300000000056475e-06,0.0,37.63756093002334,-22.85751931000635,-12.218624579989815,-61.939567290036045,23.772779640012722,-2.0399999999929306e-06,0.0,-26.879804200005516,-0.9839357999998014,1.432934039999268
22.90000000000017,1.6917852800004158,2.7237912300046245,87.09737006000252,0.5191966600000048,0.7559490199998418,0.335926790000018,44.84162785002061,-21.3580569100079,-14.819072919992852,-73.09124938003875,26.106219220015067,3.7600000000026398e-06,0.0,44.59362358002321,-24.636129150005264,-8.885642849987603,-72.90248566003744,27.728221400013847,1.2000000000629014e-07,0.0,-28.516668700005656,-0.8809854199996434,1.309965619999825
22.95000000000017,1.654690829999403,4.334078600006223,87.90382985000284,0.5204525000000038,0.708092849999834,0.3395960100000075,50.70461453001925,-23.579123850007022,-12.157939489989321,-84.3023419400372,30.36291869001382,4.039999999999951e-06,0.0,51.031723310020595,-25.753305060002603,-5.148216549987264,-83.63053786003547,31.70824482001304,1.9900000000056895e-06,0.0,-30.235845190006096,-0.8911100300003533,1.1960723299993545
23.00000000000017,1.3912445499989632,6.3275625800072,88.65312689000223,0.5213639700000023,0.6594007899998352,0.34081273000000156,56.00219014001709,-25.52105082000604,-8.934527489988568,-94.69985059003366,34.423458460013215,3.829999999998903e-06,0.0,56.63620878001783,-26.346806340001685,-1.5470713199881376,-93.61627612003258,35.31809612001151,3.670000000005708e-06,0.0,-32.12077872000661,-1.055142480000638,1.062288009999536
23.05000000000017,1.0185617499985697,8.531111170007522,89.27477634000199,0.5216335799999996,0.6122972899998443,0.3406729899999979,60.77429139001566,-27.21690399000529,-5.431868649987565,-104.05264287002997,37.92195207001068,3.840000000000379e-06,0.0,61.44788125001531,-26.669224270000605,1.7759863800108247,-102.65080486002898,38.4479025300098,5.4000000000060995e-06,0.0,-34.14116089000687,-1.2643350700007134,0.8972363899994328
23.100000000000172,0.656978439999109,10.602878210006642,89.73759434000107,0.5213049099999985,0.5683348099998559,0.3397314099999961,65.30771769001518,-28.427914580002867,-1.718166119987377,-112.27516578002617,40.713580340008086,4.049999999999534e-06,0.0,65.79630455001451,-26.83337084000066,4.87942740001058,-110.64415830002565,41.07693789000789,6.960000000005413e-06,0.0,-36.040823510006234,-1.3985652300002163,0.8716539300004568
23.150000000000173,0.42220905999934466,12.431248560006269,89.9879378600006,0.5206317099999969,0.5276389599998637,0.338567089999996,69.74125556001508,-29.10107819000185,1.9869560600128529,-119.47894255002358,42.77431109000606,4.3900000000022975e-06,0.0,69.96565008001397,-26.93374760000009,7.953780270010676,-117.73365151002335,43.145982600006576,8.330000000004152e-06,0.0,-37.81988273000635,-1.3784134799996293,1.078637300000918
23.200000000000173,0.2554310699997959,14.358968660007095,90.06388561999998,0.5195638499999959,0.49057611999987827,0.33737097999999577,73.7331965300126,-29.480447700000752,5.637482660012169,-125.78089146002043,44.26631446000428,4.980000000002756e-06,0.0,73.53461400001129,-26.898672359999697,10.931287260010544,-124.00531168002048,44.8488172100052,9.440000000003992e-06,0.0,-39.819677110007454,-1.2578662799992464,1.3277778500007222
23.250000000000174,0.35136566000065894,16.345869850006668,89.99515691999973,0.518536549999997,0.4576958099998936,0.33616606999999615,77.07415498001082,-29.51270785999963,8.877516110010665,-131.18058338001723,45.263765080002266,5.840000000003646e-06,0.0,76.67298206001034,-26.79003874999934,14.079313750011018,-129.47248599001745,46.08767513000359,1.042000000000339e-05,0.0,-41.924257300007206,-0.9345442699987109,1.5254708300004713
23.300000000000175,0.5752840000009101,18.20060816000615,89.90190882999954,0.5177265199999976,0.4297676999999121,0.33531868999999825,79.87517807000872,-29.386175799999396,11.691004090008823,-135.62406082001374,45.77737248000139,6.9800000000034755e-06,0.0,79.36004602000844,-26.501257639998787,17.124505910010136,-133.98852733001402,46.96434225000245,1.1340000000003425e-05,0.0,-43.987297730007064,-0.5704734199988261,1.5703202399999354
23.350000000000176,0.8768428600008977,19.83808977000557,89.73104982999938,0.517074599999998,0.407287239999932,0.3352103200000009,82.11567782000667,-29.18387956999934,13.922447190007126,-139.06373931001033,46.045005270000416,8.130000000004466e-06,0.0,81.54257070000611,-26.092276229998525,19.87814985000854,-137.51881420001058,47.47715154000138,1.2250000000002043e-05,0.0,-45.95717446000707,-0.23215633999911162,1.5724088899999844
23.400000000000176,1.14082502000101,21.24210476000433,89.57854702999934,0.5165383099999991,0.3907822399999539,0.3355504300000012,83.69214688000388,-29.0433997199995,15.602313680004263,-141.5249633100068,46.165484140000515,9.080000000002578e-06,0.0,82.97648065000355,-25.59822390999837,22.05406754000666,-140.045412030007,47.78301265000082,1.291000000000205e-05,0.0,-47.76128035000555,-0.004201289999369511,1.60475205000049
23.450000000000177,1.3257380000002807,22.13601747000146,89.46320704000004,0.5164234199999997,0.38190360999998385,0.3356421299999992,84.38560804000171,-29.067900790000422,16.395942860001725,-142.82945512000248,46.34666804999979,9.470000000000375e-06,0.0,83.56398868000103,-25.22335113999876,23.365789440002462,-141.38868931000246,47.94331852000028,1.3309999999999976e-05,0.0,-48.91084850000193,0.09170103000015462,1.774413800000148
23.500000000000178,1.324813809999775,21.998361659997666,89.49612890000007,0.5167966400000028,0.38254177000002143,0.3354229599999998,84.4510001399987,-29.235519450000773,16.239221969997054,-142.74915411999686,46.323317479999844,9.269999999997387e-06,0.0,83.50642080999845,-25.04240495000015,23.388116979997683,-141.25814182999656,47.88690866999924,1.3099999999997533e-05,0.0,-48.79876465999749,0.04336669999945856,1.796648169999967
23.55000000000018,1.2423342299994562,20.834895759994097,89.49250159000006,0.5178143000000036,0.3940576900000603,0.33574974000000285,83.6799233399958,-29.4735783100013,14.772373059992532,-141.04133916999083,46.08586310999905,8.369999999995202e-06,0.0,82.75739491999619,-25.306871410001595,22.08686667999281,-139.44400315999056,47.501485909998024,1.233999999999793e-05,0.0,-47.53986906999364,-0.1324736000007681,1.778670059999948
23.60000000000018,1.0143511799991314,18.81583238999206,89.49225549999977,0.5187707000000035,0.4160588500000955,0.3369664300000058,82.06735625999247,-29.855874420000966,12.233988849989677,-137.62015419998505,45.68264625999765,7.069999999995893e-06,0.0,81.22363402999255,-25.87093892000246,19.405387589988592,-135.96823955998488,46.78173996999696,1.1219999999995505e-05,0.0,-45.366664829991414,-0.4035409500011057,1.7673047099998915
23.65000000000018,0.7851580499992994,16.575728219992065,89.42760639999985,0.519516190000002,0.44744580000012907,0.3386503900000055,79.19405253998677,-30.053518170000295,9.00693634998728,-132.6378633099793,44.86046812999644,5.969999999996578e-06,0.0,78.42953225998737,-26.53200520000209,15.822670609986046,-130.97771694997942,45.79880169999592,9.929999999995407e-06,0.0,-42.87121925999075,-0.6420099800004812,1.7224566599997224
23.70000000000018,0.5427307799986183,14.460715519992533,89.4016186200002,0.5202107400000024,0.48681947000015513,0.3395443000000003,74.88581690998235,-29.90709791999918,5.4062773199868825,-126.28604780997466,43.7282351399958,4.9499999999959495e-06,0.0,74.20441101998206,-26.961296870000417,11.711396259984,-124.60539476997447,44.5443298799949,8.549999999995129e-06,0.0,-40.2314181099899,-0.811559720000998,1.5905068699990987
23.75000000000018,0.10332447999831064,12.584023019993765,89.47967140000043,0.5210000300000026,0.5326667000001764,0.3385873899999926,69.43118536997841,-29.526074799998142,1.8116772199870899,-118.71678314997054,42.38278000999406,3.9799999999966635e-06,0.0,68.55447422997747,-26.757884069997967,7.2220393399837635,-116.93233215997003,42.93125065999333,6.939999999994348e-06,0.0,-37.4283504999898,-1.1795766700014958,1.2710842799986413
23.800000000000182,-0.28083539000074065,10.915354149994204,89.58887403000018,0.5216361400000027,0.5835260200001924,0.3356435699999864,63.144496209975834,-28.78657403999637,-1.7990332700137874,-110.02753387996637,40.384386789990955,3.049999999996481e-06,0.0,62.09248765997584,-25.926713169996617,2.930495549985419,-108.09505491996579,40.778411529990876,5.1899999999933485e-06,0.0,-34.543036179989684,-1.5228572000007672,0.9371054999989819
23.850000000000183,-0.3196266199995442,9.382567399994501,89.60394751000008,0.5225659100000037,0.6383542200002033,0.3312052099999816,56.159417269973936,-27.508501809994378,-5.734757850014578,-100.12560110996199,37.49058062998786,2.2599999999976164e-06,0.0,55.24114462997492,-24.903850949995856,-0.8194898100124576,-98.05679746996157,37.898810679988,3.3099999999924026e-06,0.0,-31.74027759998989,-1.598898929999785,0.7958450399998568
23.900000000000183,-0.07045007999864851,7.8716882899942044,89.6090348799998,0.5235703700000036,0.6947946100002077,0.32547736999997695,48.82545901997277,-25.710680679992343,-9.800681510015181,-89.07198492995708,33.728022929984846,1.5799999999968165e-06,0.0,48.291748639974436,-23.755813099995905,-4.097700360011695,-86.97010563995732,34.18106809998478,1.309999999992413e-06,0.0,-28.92607316998928,-1.4017871999988736,0.8290991700004224
23.950000000000184,0.3436578000016259,6.2088002899935315,89.4855518199994,0.5243614500000018,0.7496678600001957,0.31899086999997506,41.60514585997396,-23.372460349990504,-13.763456100013897,-76.97417842995371,29.311638169982615,8.699999999979459e-07,0.0,41.35473394997446,-22.53560912999503,-7.100664840010543,-74.89723461995375,29.8751862799834,-4.900000000071171e-07,0.0,-25.929402999988657,-1.0306611899982738,0.960343230000578
24.000000000000185,0.7837396100017392,4.51907464999427,89.17499895999848,0.5246871100000005,0.7995668500001707,0.311550409999969,34.66345189997432,-20.53490345998872,-17.12554299001129,-64.18482647995208,24.461372319982175,2.099999999979287e-07,0.0,34.39838633997417,-21.25313460999552,-10.079830160011245,-62.25590715995342,25.130520509981952,-2.190000000006145e-06,0.0,-22.878755549988952,-0.5634545099980005,1.25710266000192
24.050000000000185,1.3108666800019717,2.981434939994173,88.73090569999843,0.5245979299999987,0.840379090000129,0.30232715999996296,28.092834379977337,-17.314293829988117,-19.574279000007284,-51.48354222995452,19.592945879982633,-1.3000000000025236e-07,0.0,27.76080670997727,-20.15512293999619,-13.137227700011444,-50.09768667995731,20.298603159982996,-3.450000000003339e-06,0.0,-19.76038595998765,0.07356872000266618,1.7719313800018734
24.100000000000186,1.7149987800007898,1.317724359993528,88.38520586999908,0.5238537899999961,0.868468210000078,0.29175240999996,22.553070449982307,-14.367410069990656,-21.24749705000519,-39.891585429960905,15.451209539987232,-1.5999999999979015e-07,0.0,22.254540779982502,-19.01299682999517,-16.133870710010385,-39.350133319963966,16.247503389987457,-3.939999999999757e-06,0.0,-16.157560179985776,0.731786730001825,2.1437859000012156
24.150000000000187,1.7125014599991868,-0.42326936000610105,88.06349398999835,0.5226436199999953,0.8827924900000303,0.28137793999996397,18.77745776998976,-12.373128469994711,-22.25191559000197,-30.876347949972942,12.818358069993373,-1.400000000003829e-07,0.0,18.36611360998829,-17.632674229994592,-18.710521980008156,-30.99954319997415,13.782361199994307,-3.799999999999295e-06,0.0,-12.286297059986167,1.0217531600001841,2.458566110001409
24.200000000000188,1.4379564799987585,-1.846077060003805,87.58662729999824,0.5213957999999947,0.8861032,0.27322493999997466,17.07819150999618,-11.473245159998486,-22.44421994999975,-25.684367249987467,11.886296129999241,-4.3000000000148163e-07,0.0,16.136965159993572,-16.403663619996024,-20.340579970004534,-25.84338211998618,13.168397320000578,-3.5899999999997424e-06,0.0,-9.040544179990528,0.9831529799994948,2.7893972500010142
24.25000000000019,1.2456005200000044,-2.3905359700006064,87.34396923000024,0.5197226299999926,0.8852518099999972,0.26766617999998243,16.099720379995425,-11.237479239999113,-22.52798066000142,-23.34573050999281,11.985416090000667,-7.099999999996542e-07,0.0,14.62744302999467,-15.606764859997853,-21.163199620001535,-23.083905059991665,13.624585810001923,-3.159999999997759e-06,0.0,-7.371689499996757,0.9683535900004189,2.864835689998889
24.30000000000019,1.2629623199996853,-2.815239550002571,87.6692786700017,0.5175410699999916,0.884474079999997,0.2637643399999881,15.25507584999879,-11.07274567000011,-23.046442120001764,-21.641699879995095,12.019946959999826,-6.19999999998594e-07,0.0,13.893224719999468,-15.092416729997856,-21.250248619999613,-21.277255759994542,13.893431240000115,-2.7399999999985613e-06,0.0,-6.349068319995425,1.1319378900003991,2.471500319999577
24.35000000000019,1.157709789999489,-3.274032920001241,88.02189528000058,0.5156204999999946,0.8839297299999982,0.2613527999999943,15.174725070001458,-11.24435187000122,-23.359021730000023,-21.06082646000112,12.006229700000292,-5.599999999998504e-07,0.0,13.803258910000263,-14.633433909998733,-21.193985959999953,-20.323920469998484,13.898703590000139,-2.409999999998466e-06,0.0,-5.485826369997758,1.0925509099995012,2.1834844899997146
24.40000000000019,1.1170441499999337,-3.2855727899993923,88.04037520999995,0.5145668099999968,0.8838075100000001,0.2600741799999956,15.328558289999954,-11.448056890000634,-23.29450995999982,-21.46128750000157,12.075896820000352,-6.000000000002215e-07,0.0,13.746062049999619,-14.522818049999879,-21.237879029999966,-20.35832649000109,14.087897470000994,-2.3100000000003108e-06,0.0,-5.3230703600003,1.0482442999998616,2.2616870000004075
24.45000000000019,1.0485897299997107,-3.070761349998892,88.1037496200005,0.5137485299999972,0.88380013,0.25880728999999447,15.15946300999867,-11.656967350000794,-23.31104214000034,-21.759961850000757,12.26705204000087,-5.899999999991931e-07,0.0,13.617728789999099,-14.423732499999499,-21.138023949999294,-20.67377805000096,14.303757850000668,-2.4100000000008557e-06,0.0,-5.461802880000853,0.9506632899995093,2.3501122999999886
24.500000000000192,1.0142255099999817,-2.8831850399999297,88.20125329000012,0.5132119599999987,0.883650119999999,0.25721533999999335,14.832436239999353,-11.767087060000136,-23.374902179999992,-21.803086249999936,12.477572500000399,-5.800000000003983e-07,0.0,13.436730399999657,-14.353518989999923,-21.009620080000023,-20.868147550000312,14.513526220000497,-2.4300000000004295e-06,0.0,-5.522080829999123,0.8686700099998863,2.305100440000002
24.550000000000193,0.9993779299998777,-2.870830410000038,88.19869456999986,0.5129029999999991,0.8834501699999996,0.25548071999999383,14.66858419999958,-11.799030470000137,-23.37841012999982,-21.756363279999842,12.604739430000441,-6.100000000002436e-07,0.0,13.350283959999786,-14.332065439999887,-21.037207760000275,-20.96998884000045,14.71117846000057,-2.499999999999859e-06,0.0,-5.356645099999604,0.8062066699996224,2.315015630000234
24.600000000000193,0.9847160499998981,-2.824571529999457,88.18754316000006,0.5127409899999992,0.8833682300000001,0.2543084699999972,14.584395339999602,-11.843803380000352,-23.348745289999886,-21.83970464000073,12.711777590000384,-6.200000000004313e-07,0.0,13.343739680000004,-14.348952110000077,-21.063233259999947,-21.210171350001403,14.850477060000408,-2.550000000001365e-06,0.0,-5.4066052100010875,0.7212009399996515,2.384296150000198
24.650000000000194,0.9055402399995781,-2.5396946099989184,88.1923690200001,0.5124458599999989,0.8835107100000008,0.2538615799999998,14.42388672999956,-12.031066470000885,-23.313717389999937,-22.160885440001323,12.847943090000344,-5.500000000006515e-07,0.0,13.214622979999717,-14.304260609999712,-21.065871180000045,-21.589797090001568,14.935505229999947,-2.5300000000008097e-06,0.0,-5.927049310002463,0.5703857299991998,2.3847906799998473
24.700000000000195,0.7936195199994645,-2.373493799999685,88.22526995000017,0.5121535599999991,0.8835711000000003,0.25427504000000356,14.502323710000976,-12.273806900001095,-23.306767259999948,-22.577343120001935,12.915714570000215,-5.699999999998044e-07,0.0,13.355724180001161,-14.248906489999742,-21.060920589999984,-22.087217160002098,14.898651079999748,-2.610000000000083e-06,0.0,-6.479213880002126,0.3693999999990608,2.3346931399996897
24.750000000000195,0.7227506899999372,-2.2621624099993918,88.26605542000016,0.5120623999999999,0.8837135900000007,0.25551847000000627,14.726757270000844,-12.462392180000508,-23.277935169999846,-23.046047660001957,12.896261359999885,-6.999999999997646e-07,0.0,13.670586800001326,-14.27056506000039,-21.00861368999954,-22.664892720002598,14.799165389999793,-2.760000000000786e-06,0.0,-7.111103920002934,0.19311704999952867,2.260597489999671
